Start_Index,Activity_Label,SpecEn,PermEn,SampEn,Petrosian_FD,Higuchi_FD,KMeans_Labels,DBSCAN_Labels
0,0.0,0.42049322549611684,0.520109478995454,0.27230470417274183,1.0036041977073993,1.0897106731425095,2,-1
128,0.0,0.39664445654457103,0.5094458609041542,0.2728446697711874,1.0032338783315098,1.0501340781538961,2,-1
256,0.0,0.3810764953040254,0.519953280288176,0.21547962985538563,1.0034808219392384,1.0440900525958765,2,-1
384,0.0,0.3711176130534224,0.5159454239528599,0.16167090265673484,1.0033573821759203,1.049264928511163,2,0
512,0.0,0.36100341432975697,0.4921562965455477,0.1956465013233951,1.0028629814496335,1.089325356943522,2,0
640,0.0,0.3874493724047868,0.5009712233694043,0.2573024701255287,1.0032338783315098,1.08353689964123,2,-1
768,0.0,0.4168244933751817,0.513064105902021,0.2671409071974464,1.0037275095661569,1.0812838104663216,2,-1
896,0.0,0.42560117794795693,0.516653065404313,0.30562990692363196,1.0038507576010838,1.0763989920571275,2,-1
1024,0.0,0.4250974013775414,0.5098652219972206,0.24553962878702226,1.0039739418975728,1.0675625561755635,2,-1
1152,0.0,0.4246798773448279,0.5021840996565585,0.2468346108714303,1.0038507576010838,1.104721341653046,2,-1
1280,0.0,0.5025839316155692,0.5138722590234122,0.22568453374797506,1.0036041977073993,1.098482245646646,2,-1
1408,0.0,0.51125346751367,0.5117889671720168,0.23549149362849509,1.0037275095661569,1.098817817819319,2,-1
1536,0.0,0.5189382543455421,0.5351511620578038,0.23911392742032736,1.004097062540836,1.1255678329360386,0,-1
1664,0.0,0.5078618246637304,0.5619074955339576,0.20577729167896816,1.0048344544320031,1.1211250728126307,0,-1
1792,0.0,0.5007892547011656,0.5504924637593447,0.19326276130325767,1.0048344544320031,1.099143560056835,0,-1
1920,0.0,0.5048509975431007,0.5493308867861575,0.20532891011069934,1.0047117139286545,1.1035192448095865,0,-1
2048,0.0,0.444788146882207,0.5431032641954219,0.26662466012350056,1.0048344544320031,1.1128229947963142,0,-1
2176,0.0,0.440551020922674,0.51997144589465,0.32120159671054727,1.0043431132076361,1.0969099332995855,2,-1
2304,0.0,0.4179304608431362,0.5102852458769022,0.31675256824726233,1.0039739418975728,1.087845758843444,2,-1
2432,0.0,0.4073531558600792,0.5351553730991802,0.29773772744007193,1.004588910279602,1.0799290407517241,2,-1
2560,0.0,0.40144160568656173,0.5279576796642038,0.2466968792367531,1.0043431132076361,1.0952590070041457,2,-1
2688,0.0,0.35211484666014226,0.5159429915487882,0.21631265072442252,1.004097062540836,1.0653981669465764,2,0
2816,0.0,0.33675491632827453,0.5233870422207876,0.2239809989009598,1.0043431132076361,1.0665627353268754,2,-1
2944,0.0,0.34657179466069576,0.516469530843272,0.24074167252147274,1.0039739418975728,1.0887215607603171,2,0
3072,0.0,0.39525891066875224,0.5543656654471834,0.30270454683584436,1.0048344544320031,1.0814247406401638,2,-1
3200,0.0,0.45831609462467116,0.5604804738588797,0.24566763957145252,1.005079746337278,1.1474190129786799,0,-1
3328,0.0,0.3575795241012642,0.5831008329221482,0.2224875985192894,1.0055695760821457,1.080862537700278,2,-1
3456,0.0,0.3738003793965208,0.5973261200574727,0.2461173880610857,1.006058404837703,1.0940651959916863,0,-1
3584,0.0,0.38618855350177544,0.574925215164116,0.3404876036903649,1.0052022979066102,1.1076534468979222,0,-1
3712,0.0,0.4377130703670085,0.5765434945430175,0.32909905717225096,1.0052022979066102,1.0818271925158207,0,-1
3840,0.0,0.4259906708796731,0.5559166012169268,0.3782401961601732,1.0047117139286545,1.0839488211838029,0,-1
3968,0.0,0.4106554593390076,0.5422087377819719,0.41295177409308476,1.0043431132076361,1.0742167510098928,2,-1
4096,0.0,0.43797685357200256,0.5343407151250619,0.3678131427656506,1.004097062540836,1.0697361361807196,2,-1
4224,0.0,0.43112235019129774,0.5303551079831642,0.3484855204690632,1.0038507576010838,1.071473133931324,2,-1
4352,0.0,0.42818984990305425,0.5154667066467232,0.31827540039849755,1.0034808219392384,1.0749851331922735,2,-1
4480,0.0,0.4014848442880735,0.5031880525566303,0.2720528985100471,1.0032338783315098,1.0754278270451245,2,-1
4608,0.0,0.3994316672268354,0.4789420784087138,0.24006242516471116,1.0029866780547583,1.0729310332637554,2,0
4736,0.0,0.3719700576005139,0.439985298453412,0.20435038409639703,1.0024915047267045,1.0529321571562915,2,0
4864,0.0,0.38692712354444325,0.4553911622677195,0.18076713482719878,1.0028629814496335,1.08577143361608,2,-1
4992,1.0,0.3830756854338906,0.45389624036269965,0.1703833931112873,1.0028629814496335,1.061021967463792,2,0
5120,1.0,0.3849138301819037,0.5012938739753234,0.17582539103396555,1.0036041977073993,1.0742982738805718,2,0
5248,1.0,0.3523383541500799,0.5191744246367946,0.20089132425510348,1.0039739418975728,1.0942487657658775,2,0
5376,1.0,0.3643660968406942,0.5208849696792089,0.22119397214971312,1.004097062540836,1.0787853705647708,2,0
5504,1.0,0.35425769568013776,0.5165312212406715,0.24499976385750105,1.0038507576010838,1.0693677630919896,2,0
5632,1.0,0.35670190963924947,0.5003433482480254,0.22729340603763776,1.0037275095661569,1.0618287486710904,2,0
5760,1.0,0.3723758129315015,0.5092145139679869,0.22091600571902922,1.0039739418975728,1.0712652669713698,2,0
5888,1.0,0.38818785473215506,0.5112219711156515,0.2469089703437824,1.004097062540836,1.0647187686441744,2,0
6016,1.0,0.382382114952541,0.5524069635554344,0.28318440486863244,1.0049571318736141,1.1090401823896718,2,-1
6144,1.0,0.49988652359486996,0.5504983387843762,0.23013444260561533,1.0047117139286545,1.0968822382139054,0,-1
6272,1.0,0.4737008677338174,0.5554443299857585,0.2833348988464107,1.0048344544320031,1.0714437854023133,2,-1
6400,1.0,0.4761221342222154,0.5495925343048446,0.3006247929333551,1.0044660434007024,1.0811020115979253,2,-1
6528,1.0,0.4323859367584245,0.5336386836065014,0.25389221250703864,1.004097062540836,1.0717324057561488,2,-1
6656,1.0,0.4352746014675785,0.5157539317212985,0.2737974225817026,1.0038507576010838,1.1022348300276823,2,-1
6784,1.0,0.3674959546635498,0.4911721171187919,0.23241581753152754,1.003110310319889,1.0715646574083637,2,0
6912,1.0,0.3547915942607781,0.5151908069920819,0.1961078068155129,1.0037275095661569,1.0688873522667566,2,0
7040,1.0,0.3457375423292816,0.5019133216936787,0.1999764920326754,1.0033573821759203,1.0983886372525198,2,0
7168,1.0,0.34940868005119613,0.508953311704716,0.19257085676472227,1.0036041977073993,1.0830626714231488,2,0
7296,1.0,0.3598199064906587,0.5218333859383847,0.18626119123135892,1.0039739418975728,1.0780977669736997,2,0
7424,1.0,0.35836677074184053,0.48221571243868383,0.1912594174675087,1.0032338783315098,1.0929618466848128,2,0
7552,1.0,0.34687577242963363,0.4691111505067016,0.1669402492311327,1.0028629814496335,1.0651872246037948,2,0
7680,1.0,0.3343209389604754,0.4797279836830832,0.16158694409895363,1.0027392204178478,1.0609188521485848,2,0
7808,1.0,0.32727563015791983,0.45882342738586485,0.16770017151832162,1.0023675498930893,1.0824788597739257,2,0
7936,1.0,0.3272946785803079,0.477299016391257,0.16019639244209843,1.0028629814496335,1.06640182909221,2,0
8064,1.0,0.3318513485446689,0.48950212746041044,0.16661621520381978,1.0032338783315098,1.069943287636415,2,0
8192,1.0,0.36600327351107137,0.49441198377079315,0.18825296619257528,1.0032338783315098,1.0595591790612788,2,0
8320,1.0,0.3502249987275174,0.48414610795496504,0.1807578348177719,1.0029866780547583,1.0777326499858566,2,0
8448,1.0,0.3469563241778803,0.4896782255813815,0.19457927190176255,1.0029866780547583,1.064460553952323,2,0
8576,1.0,0.33890741314929634,0.5038986997099626,0.19277389319675287,1.0032338783315098,1.0588747030511707,2,0
8704,1.0,0.35115151830858937,0.4836161041249293,0.20247795429430737,1.0029866780547583,1.0681677917092887,2,0
8832,1.0,0.36694917762030604,0.48883590022481116,0.2010588834609257,1.0033573821759203,1.0750730157969421,2,0
8960,1.0,0.33376517380470466,0.4892892071950208,0.18046447267171706,1.003110310319889,1.0769711247495444,2,0
9088,1.0,0.33908120457191643,0.4662674780578643,0.17468920332838817,1.0026153948725502,1.0818941960884039,2,0
9216,1.0,0.3353316576616337,0.48493977902068375,0.17526721760407993,1.003110310319889,1.0720693405926034,2,0
9344,1.0,0.35103115652527084,0.48584884052214866,0.17967664992033602,1.0029866780547583,1.0688904034481481,2,0
9472,1.0,0.35171302543983185,0.4750853098631793,0.18396743929502107,1.0027392204178478,1.0593482820248041,2,0
9600,1.0,0.3507955166911978,0.4649716285605821,0.17457887264419703,1.0027392204178478,1.0842295664937238,2,0
9728,1.0,0.3318492672116692,0.4562438277125051,0.1722017677508246,1.0026153948725502,1.063817468558789,2,0
9856,1.0,0.337979156622284,0.4804794557828243,0.16381683593290508,1.0029866780547583,1.0624546796649705,2,0
9984,1.0,0.3331751167601156,0.47687417353540984,0.18303069602234495,1.003110310319889,1.075870505548548,2,0
10112,1.0,0.32671476469126104,0.4785027875714178,0.1819265340750118,1.003110310319889,1.0731519132158667,2,0
10240,1.0,0.3147403426146509,0.4913735984750478,0.18881934169278075,1.0029866780547583,1.0701687749588367,2,0
10368,1.0,0.3200860222520664,0.47745055850977264,0.2030311840501677,1.0026153948725502,1.0716936840229414,2,0
10496,1.0,0.3236382813955134,0.46905294966308647,0.18374000670841695,1.0026153948725502,1.0641110806858045,2,0
10624,1.0,0.32272329076746054,0.4784021347342676,0.1810968168980587,1.0024915047267045,1.0647242309235465,2,0
10752,1.0,0.32244530605792854,0.47753062007431435,0.17390349516357612,1.0026153948725502,1.057817692314462,2,0
10880,1.0,0.3678137132371666,0.4894949825695552,0.21316282593657754,1.0029866780547583,1.0765121330256213,2,0
11008,1.0,0.42367953625943294,0.4974895233175554,0.21382740768792943,1.003110310319889,1.077423471768675,2,-1
11136,1.0,0.39660236197460486,0.49607146050388784,0.22086512699750568,1.0032338783315098,1.0631570636249068,2,0
11264,1.0,0.3733506872957949,0.4986970129445959,0.24693063797892228,1.0033573821759203,1.061611118512578,2,0
11392,1.0,0.3552531150085696,0.46755816400318545,0.22444745389253917,1.0027392204178478,1.0744609009711652,2,0
11520,1.0,0.3523134035547256,0.46627568806626335,0.1943611917490671,1.0029866780547583,1.0737738170673656,2,0
11648,1.0,0.3550629937566882,0.4760459688434526,0.19575541400399085,1.0032338783315098,1.0610593699591786,2,0
11776,1.0,0.3488247801719163,0.47929493832711406,0.1841375140258517,1.0032338783315098,1.0559281556684537,2,0
11904,1.0,0.35021661176823615,0.48596799812854496,0.1714511784298793,1.0032338783315098,1.0874944959351787,2,0
12032,1.0,0.3475255252664978,0.4771987457913698,0.15959862597880203,1.0028629814496335,1.0766450245409818,2,0
12160,1.0,0.33665820965796467,0.4786511617082488,0.149879467102208,1.0028629814496335,1.0636144537814742,2,0
12288,1.0,0.33581240882143776,0.4450187099357193,0.1460232325629882,1.0023675498930893,1.0636724352683975,2,0
12416,1.0,0.33952435458909364,0.4656637165848769,0.1424503137069087,1.0028629814496335,1.0627750001995488,2,0
12544,1.0,0.3394672934561575,0.48878428542702884,0.14118410909069015,1.003110310319889,1.0599415703024049,2,0
12672,1.0,0.3505161713815028,0.4678123870289575,0.1532706706444466,1.0026153948725502,1.0767943152650035,2,0
12800,1.0,0.3410360164800091,0.485522891424457,0.15019270261089182,1.003110310319889,1.0748802789524794,2,0
12928,1.0,0.3421631000165448,0.4933107373207313,0.14971554635769851,1.0032338783315098,1.0625587387111912,2,0
13056,1.0,0.3320193431770333,0.49293307122244645,0.1522429945972783,1.003110310319889,1.0535186409995707,2,0
13184,1.0,0.3395276955759072,0.4815886769731274,0.1488068875044497,1.0029866780547583,1.07564388115438,2,0
13312,1.0,0.3331759364077885,0.4888608424632695,0.15539647542877055,1.0029866780547583,1.0659812261941424,2,0
13440,1.0,0.331330637647519,0.4812478472239882,0.15164676615598377,1.0027392204178478,1.059141166574306,2,0
13568,1.0,0.31599532592567914,0.4812478472239882,0.16216720285310082,1.0027392204178478,1.052867457675769,2,0
13696,1.0,0.31529751974290954,0.4915568414868742,0.1646559517840589,1.0029866780547583,1.0726535016923868,2,0
13824,1.0,0.33760647387121,0.48923047238921563,0.18388113749466597,1.0028629814496335,1.076867402553142,2,0
13952,1.0,0.3521604548658901,0.47997530912614855,0.17743432089153924,1.0027392204178478,1.0670648412740442,2,0
14080,1.0,0.3606611799588714,0.4888608424632695,0.1807953742220569,1.0029866780547583,1.0649986558585047,2,0
14208,1.0,0.33636845813952326,0.49954715185100496,0.1601383402413677,1.0032338783315098,1.0612207162788685,2,0
14336,1.0,0.33510402919464255,0.5015398961402805,0.17005209411566263,1.0032338783315098,1.0816668957979305,2,0
14464,1.0,0.3367764892776772,0.49671821559241863,0.16510788587665162,1.0032338783315098,1.073832635375384,2,0
14592,1.0,0.3398839289884835,0.48498221693012,0.16852355753029052,1.0029866780547583,1.0634869781210086,2,0
14720,1.0,0.34239516287769556,0.48825148170454485,0.19320388636293476,1.003110310319889,1.0574961713660296,2,0
14848,1.0,0.3611519874807457,0.4818755997825332,0.18111798030753537,1.0032338783315098,1.0774570036507252,2,0
14976,1.0,0.35760128652390416,0.49126632458078096,0.18770654009300658,1.0032338783315098,1.0685291160265888,2,0
15104,1.0,0.3536734865060802,0.49373175845849204,0.19044036564667086,1.0032338783315098,1.0635222806781928,2,0
15232,1.0,0.33843033318508564,0.4778788458853539,0.17754022297687652,1.0028629814496335,1.0830523637047762,2,0
15360,1.0,0.3391517577929158,0.4774793508447932,0.16099543011542633,1.0028629814496335,1.0737086534031164,2,0
15488,1.0,0.33259686715976383,0.48487472048965985,0.16662381154633277,1.0029866780547583,1.0653480529361181,2,0
15616,1.0,0.3262851516896034,0.4733329433244799,0.17905226129401774,1.0026153948725502,1.0690391601248148,2,0
15744,1.0,0.3227810899612724,0.46685255574974227,0.1675008409012508,1.0026153948725502,1.0594660704170147,2,0
15872,1.0,0.32053432881846466,0.48359223649637767,0.18379836447324763,1.0027392204178478,1.0623355236485437,2,0
16000,1.0,0.34251829239305265,0.47994160786462536,0.21314394415933194,1.0026153948725502,1.0834327211369652,2,0
16128,1.0,0.3380114103225466,0.49207540816351736,0.2132669749885196,1.003110310319889,1.0606033027361248,2,0
16256,1.0,0.3729199139926587,0.4841310149376886,0.221152438815434,1.0029866780547583,1.0657310742708694,2,0
16384,1.0,0.36253092822852445,0.4705717021312159,0.2130222456583294,1.0026153948725502,1.0542609688712965,2,0
16512,1.0,0.3720565999266144,0.4830101317568277,0.18337012874952163,1.0028629814496335,1.0553424809979361,2,0
16640,1.0,0.31765339541842585,0.46597842456711064,0.1737566547512523,1.0024915047267045,1.072399190274955,2,0
16768,1.0,0.3245652128200275,0.4756294700944279,0.1747139124947313,1.0024915047267045,1.062959839043528,2,0
16896,1.0,0.3362881248464351,0.477894192970493,0.17031358597910334,1.0024915047267045,1.0631207641099991,2,0
17024,1.0,0.3302315158092962,0.4790476899066067,0.16652703244142467,1.0026153948725502,1.05637631111845,2,0
17152,1.0,0.3413049772832683,0.4834873657266918,0.17529136352964503,1.0027392204178478,1.0719854577035814,2,0
17280,1.0,0.33552143943431295,0.4973551262457053,0.1709174864897589,1.0032338783315098,1.0689221570452998,2,0
17408,1.0,0.33491120417868897,0.5006110127564865,0.16993093405677495,1.0034808219392384,1.0643268305572555,2,0
17536,1.0,0.3237670310177945,0.48596799812854496,0.16299914354526027,1.0032338783315098,1.0765196445428167,2,0
17664,1.0,0.3238087675303754,0.4735416166181338,0.14813729979561055,1.003110310319889,1.0661436065919023,2,0
17792,1.0,0.330019387565606,0.49302922098510915,0.16650115631150164,1.0032338783315098,1.0713167509045567,2,0
17920,1.0,0.3740175584773105,0.48840014856652153,0.1809722333161588,1.0029866780547583,1.06063846449295,2,0
18048,1.0,0.3691108871160714,0.4858871547106319,0.17868151232987345,1.0028629814496335,1.0517195210462813,2,0
18176,1.0,0.37435435211130613,0.4871137421224302,0.18209603951273723,1.0028629814496335,1.078194564104317,2,0
18304,1.0,0.3344686303407673,0.4686059917735776,0.1778434825636367,1.0024915047267045,1.0607741304099079,2,0
18432,1.0,0.3448760525404014,0.4726753914902727,0.18281047466549308,1.0027392204178478,1.0575663859842437,2,0
18560,1.0,0.34187073996437484,0.4777026092870776,0.1816241879917203,1.0028629814496335,1.0691909591219653,2,0
18688,1.0,0.34335818080987374,0.47094187227136436,0.1804808210790749,1.0026153948725502,1.0609340835859484,2,0
18816,1.0,0.32974146675486954,0.4822731090082428,0.19335756898761725,1.0027392204178478,1.0673231856349583,2,0
18944,1.0,0.33817578646370117,0.47375956819445203,0.18465500441239477,1.0024915047267045,1.0522000226328077,2,0
19072,1.0,0.3382951240904056,0.47040430424823076,0.19081921328514515,1.0023675498930893,1.0500455208770376,2,0
19200,1.0,0.3592930834649103,0.4793742299863913,0.18790078136760716,1.0026153948725502,1.087871926610536,2,0
19328,1.0,0.3773740141903128,0.46856502517265175,0.1934780573611674,1.0023675498930893,1.0811183907311575,2,0
19456,1.0,0.38495247458323284,0.4610380095022644,0.1965280455848376,1.0022435302842976,1.0603553579207565,2,0
19584,1.0,0.37579278133696653,0.4670084174182862,0.18098258208273518,1.0024915047267045,1.0544617358574206,2,0
19712,1.0,0.3482511572663341,0.4636387215689577,0.17529162724239483,1.0022435302842976,1.072052102343869,2,0
19840,1.0,0.3391133774293331,0.4515548823063593,0.1650548484108698,1.0021194458127354,1.0593739772030033,2,0
19968,1.0,0.3474811790573302,0.457023142996146,0.15666870794036183,1.0019952963906225,1.0600477847674705,2,0
20096,1.0,0.34574399857077315,0.45877842245269373,0.1592074372778058,1.0019952963906225,1.0489666304469152,2,0
20224,1.0,0.40463347154189594,0.4812478472239882,0.1967862792010697,1.0027392204178478,1.0762821363033663,2,0
20352,1.0,0.40125063418356727,0.5159577045968555,0.250612001307403,1.0034808219392384,1.0777578986611343,2,-1
20480,1.0,0.4157780853128128,0.5220189089792042,0.2699332160619918,1.0037275095661569,1.0803745521030304,2,-1
20608,1.0,0.3923077978504181,0.5145778605662088,0.2651656942375035,1.0034808219392384,1.070520134931308,2,0
20736,1.0,0.3675170499959084,0.4838671611941923,0.2054333705480607,1.0026153948725502,1.0830142652852937,2,0
20864,1.0,0.32822573292992485,0.46064589251856924,0.15999405670037026,1.0019952963906225,1.0594608631089915,2,0
20992,1.0,0.3272757362005213,0.4704818119629041,0.15282938476605804,1.0022435302842976,1.052351517698824,2,0
21120,1.0,0.3268094518377432,0.4573419788844437,0.1712610532010961,1.0021194458127354,1.078599298817499,2,0
21248,1.0,0.32504526513333115,0.47967163268642155,0.1653304852449127,1.0026153948725502,1.056646132908839,2,0
21376,1.0,0.32144340430957813,0.49494854354209256,0.161435282538505,1.0029866780547583,1.05571325955582,2,0
21504,1.0,0.3287085887513035,0.46375825914641333,0.1703392664072891,1.0023675498930893,1.0826267203533,2,0
21632,1.0,0.32826792266041993,0.4636285063382677,0.16387628763763992,1.0023675498930893,1.061787583796169,2,0
21760,1.0,0.331019904749342,0.4633434970414919,0.1677238909482292,1.0019952963906225,1.0575183554044039,2,0
21888,1.0,0.3263575868551997,0.4667785045271318,0.169459119614088,1.0021194458127354,1.0525957172010296,2,0
22016,1.0,0.3250155582537057,0.46946767346862844,0.15639053844164197,1.0022435302842976,1.0836388270806503,2,0
22144,1.0,0.34195266125694673,0.4800378372707718,0.1665089345386882,1.0026153948725502,1.0693813194797974,2,0
22272,1.0,0.34519403789004793,0.4717239382360806,0.16511769179512253,1.0024915047267045,1.0616679042533665,2,0
22400,1.0,0.3509162702462815,0.4636387215689578,0.16567858452720732,1.0022435302842976,1.0579839693385353,2,0
22528,1.0,0.34588533392609805,0.4842072738503429,0.15715949361659542,1.0026153948725502,1.053290678241925,2,0
22656,1.0,0.3366261786307017,0.48353052320496703,0.16027129579842075,1.0024915047267045,1.0758953154166448,2,0
22784,1.0,0.32893998787472867,0.4917527036497271,0.15597793601944027,1.0028629814496335,1.0731186350415014,2,0
22912,1.0,0.3245530414233661,0.4834224386564468,0.16284580217590183,1.0027392204178478,1.062524793942117,2,0
23040,1.0,0.3350496343113338,0.4806094310834546,0.180564655884317,1.0027392204178478,1.057747729780731,2,0
23168,1.0,0.3355890819729192,0.48264985658372395,0.17772296920086397,1.0027392204178478,1.0559360124659576,2,0
23296,1.0,0.3325236429353923,0.47906490467720564,0.17257325365480627,1.0027392204178478,1.074967004445658,2,0
23424,1.0,0.3334045338983685,0.48565855096934474,0.16689747713002373,1.0027392204178478,1.0653259559053327,2,0
23552,1.0,0.3441563441008578,0.4919591149565903,0.15923857998547825,1.0029866780547583,1.053307962579408,2,0
23680,1.0,0.3428516081442505,0.47675256643475455,0.16923486096781315,1.0027392204178478,1.0846563067648698,2,0
23808,1.0,0.3337550368161718,0.472099212651648,0.16589044901029834,1.0023675498930893,1.067623921317508,2,0
23936,1.0,0.32969756523075133,0.4764418688771525,0.16045264413561106,1.0024915047267045,1.0621780104283502,2,0
24064,1.0,0.3264476683609767,0.4570576182040735,0.16669561707785982,1.0019952963906225,1.0563501048167387,2,0
24192,1.0,0.33161826049251414,0.47352019760215586,0.15937866568059827,1.0024915047267045,1.0767011325376574,2,0
24320,1.0,0.33966564503564994,0.4868995402415797,0.15679848558800152,1.0029866780547583,1.0651612828915296,2,0
24448,1.0,0.336174033537695,0.48840014856652153,0.16713874484330107,1.0029866780547583,1.0569982995738563,2,0
24576,1.0,0.3365342422235421,0.48821001072546816,0.17197851412527035,1.0028629814496335,1.0511297380190807,2,0
24704,1.0,0.3224813594382641,0.4770175528389305,0.17768713261381738,1.0027392204178478,1.0802755144447427,2,0
24832,1.0,0.32045120503637126,0.47618007859751027,0.1682947615444789,1.0024915047267045,1.0625361901876538,2,0
24960,1.0,0.32018995949903795,0.47767384308649885,0.16412394475685332,1.0024915047267045,1.0597792479341195,2,0
25088,1.0,0.3190917522385845,0.49474831452119866,0.17313235432666127,1.0032338783315098,1.058615502978493,2,0
25216,1.0,0.34172043195174573,0.4985992941091082,0.16295239367985923,1.0032338783315098,1.052943473875743,2,0
25344,1.0,0.35107603141355687,0.4983567284199309,0.17296473032018395,1.0033573821759203,1.0801646477696822,2,0
25472,1.0,0.3634854422410293,0.4986694746508006,0.16984335950098148,1.0034808219392384,1.0655665053727281,2,0
25600,1.0,0.34754715152767474,0.4784335104567304,0.16057580465772314,1.0027392204178478,1.058140074016469,2,0
25728,1.0,0.3427041277033289,0.47353921831045775,0.16289710680003675,1.0024915047267045,1.0640376270232808,2,0
25856,1.0,0.3349172393012177,0.47821621386250013,0.16873074030708854,1.0024915047267045,1.0849525079603368,2,0
25984,1.0,0.3314108207738927,0.47821621386250013,0.16438662955540437,1.0024915047267045,1.0641955664291607,2,0
26112,1.0,0.3273659316190318,0.4874342729164627,0.16231035717456596,1.0027392204178478,1.0590198770200676,2,0
26240,1.0,0.3240985141887162,0.49548599457484516,0.14281316598613905,1.0029866780547583,1.0526259411513692,2,0
26368,1.0,0.31893531330874136,0.48755633215513816,0.15624746831668382,1.0027392204178478,1.0858697650075353,2,0
26496,1.0,0.3190170275344602,0.4874342729164627,0.1689092317061736,1.0027392204178478,1.0626329165650925,2,0
26624,1.0,0.3332735341695589,0.4858001936414576,0.1677233338930354,1.0027392204178478,1.0604806650863214,2,0
26752,1.0,0.3404206404255682,0.4883015709867486,0.20187476033619983,1.0028629814496335,1.0686017130974739,2,0
26880,1.0,0.4126085464514457,0.5081117500509297,0.22001950047836139,1.0034808219392384,1.0771238873423357,2,0
27008,1.0,0.4009276568630318,0.5150031786961932,0.2584718667536007,1.0034808219392384,1.0731432742070295,2,-1
27136,1.0,0.4125514778359427,0.5109109502032678,0.25253852566205065,1.0032338783315098,1.0618946988768416,2,0
27264,1.0,0.3382957011219478,0.5042388123661131,0.2416520398353449,1.0032338783315098,1.0915399629887523,2,0
27392,1.0,0.358604511644024,0.4951423377151953,0.22044182399109852,1.003110310319889,1.065907287186335,2,0
27520,1.0,0.36265105766371836,0.49327868105927114,0.20036267912652556,1.0029866780547583,1.0700751731447855,2,0
27648,1.0,0.35472881945474993,0.4888608424632695,0.1996481433754234,1.0029866780547583,1.0654881762182908,2,0
27776,1.0,0.34943601105349514,0.4876564430145503,0.18245398666149754,1.0029866780547583,1.0752669412991596,2,0
27904,1.0,0.3533057207652278,0.4851654599419464,0.17904682717845832,1.0029866780547583,1.0592689778244793,2,0
28032,1.0,0.3566513305211401,0.4933854782340528,0.15748574387348388,1.0032338783315098,1.050812467568619,2,0
28160,1.0,0.3595586607789008,0.4759279424763927,0.16748169829843051,1.0029866780547583,1.0755242284184516,2,0
28288,1.0,0.33811614030117454,0.47021220618621196,0.16766982716543097,1.0028629814496335,1.0566187625022665,2,0
28416,1.0,0.3417510721884109,0.4843125781608703,0.1650848510340128,1.0027392204178478,1.0610340738483668,2,0
28544,1.0,0.3337304292475273,0.4626182740963171,0.1916546304002383,1.0021194458127354,1.0784743567872932,2,0
28672,1.0,0.32961264874852764,0.4661425943497583,0.18639987750370368,1.0023675498930893,1.0628453780346694,2,0
28800,1.0,0.3173672093581194,0.4679188635165009,0.19517531659187382,1.0022435302842976,1.0578183892096522,2,0
28928,1.0,0.31931576221949914,0.46213837830104865,0.1800128320911327,1.0021194458127354,1.0481762900569875,2,0
29056,1.0,0.3208626808270087,0.45505814602035394,0.1658096172500076,1.0022435302842976,1.0626289734790315,2,0
29184,1.0,0.3299374720069032,0.45763320539638697,0.16420281573764156,1.0019952963906225,1.057753013553391,2,0
29312,1.0,0.33353019231220576,0.46725053269863603,0.14696410283219694,1.0022435302842976,1.050958088126454,2,0
29440,1.0,0.3307591303650846,0.44121802207302435,0.1580341798536559,1.001871081929991,1.064736364183325,2,0
29568,1.0,0.3230572613685392,0.4607315844528451,0.1471237486483809,1.0021194458127354,1.0638229466224436,2,0
29696,1.0,0.3246736835186353,0.4830837728308712,0.1362193142303549,1.0027392204178478,1.0518217655075455,2,0
29824,1.0,0.33417821018591853,0.462148095639604,0.14278698416996002,1.0026153948725502,1.0765918253468543,2,0
29952,1.0,0.3447826815695887,0.4868418433138483,0.13133499448867647,1.003110310319889,1.0675949156685507,2,0
30080,1.0,0.3450347911259098,0.4945845259058125,0.14240333968003832,1.0032338783315098,1.0588013075959366,2,0
30208,1.0,0.35571215414427293,0.49437710999021783,0.15102311426183995,1.0032338783315098,1.0519237175036056,2,0
30336,1.0,0.35086767380725703,0.4957549481368444,0.16200863497665235,1.0032338783315098,1.0820816579111034,2,0
30464,1.0,0.3457048670759548,0.48709560393065626,0.17030701689162797,1.0032338783315098,1.0644135678133912,2,0
30592,1.0,0.328190123847459,0.4884825828954804,0.17455341714994538,1.0034808219392384,1.0571434323414777,2,0
30720,1.0,0.32940872539186067,0.48228842326689525,0.17098170414524236,1.003110310319889,1.0522768562763034,2,0
30848,1.0,0.33064564592993817,0.47624298937559717,0.1650190952846221,1.0029866780547583,1.0594564893989264,2,0
30976,1.0,0.3239133672578183,0.4820778906242907,0.1684527677981175,1.0027392204178478,1.0650238269406347,2,0
31104,1.0,0.3321610401278771,0.48523639202632723,0.1598744977405147,1.0027392204178478,1.0548030899904408,2,0
31232,1.0,0.3307533525834938,0.4738447472290504,0.17437966369230376,1.0027392204178478,1.0724952033913389,2,0
31360,1.0,0.3427198903225553,0.4808996539854583,0.16975466762114638,1.003110310319889,1.073445488863158,2,0
31488,1.0,0.3429872194022008,0.5090092110632437,0.16581634059678807,1.0037275095661569,1.0666451615886967,2,0
31616,1.0,0.39472077313697623,0.5326267414773223,0.22177700659567773,1.0043431132076361,1.0676037259408613,2,0
31744,1.0,0.4305800363280943,0.5403828421086314,0.21719327331382415,1.0047117139286545,1.088552343795178,2,-1
31872,1.0,0.42143649945956574,0.5568523278531181,0.30876188443925817,1.004588910279602,1.0695592386138193,2,-1
32000,1.0,0.44118627429467505,0.5400895587526251,0.3469006856942762,1.004097062540836,1.0635159413124677,2,-1
32128,1.0,0.4470420434764593,0.5146645166367042,0.31028971148151724,1.0033573821759203,1.0628546401537449,2,-1
32256,1.0,0.442309213116053,0.5074274693941687,0.2907137911918136,1.0029866780547583,1.058617769553174,2,-1
32384,1.0,0.4196600519703191,0.48708278325340615,0.22393145904536452,1.0029866780547583,1.080814059876634,2,-1
32512,1.0,0.36173834679751554,0.4719442881200749,0.21620169748580048,1.0024915047267045,1.065476242293923,2,0
32640,1.0,0.3362959048737506,0.4787491012997723,0.16307504184679852,1.0024915047267045,1.057211678578615,2,0
32768,1.0,0.3337944963929701,0.46878537505664597,0.17607259202402833,1.0023675498930893,1.0882447893357259,2,0
32896,1.0,0.32854480658040064,0.4628386239803114,0.1624439878240556,1.0021194458127354,1.0590623749179042,2,0
33024,1.0,0.33141301808724094,0.4786569136304886,0.14941514051011667,1.0024915047267045,1.060823989085402,2,0
33152,1.0,0.3376539738839226,0.45856670598264493,0.13948770861724716,1.0021194458127354,1.061555437978485,2,0
33280,1.0,0.34645623939649,0.4538494624512296,0.13999915919868933,1.0022435302842976,1.0626346793988792,2,0
33408,1.0,0.3477557351230202,0.47315022999936734,0.15067878289528838,1.0024915047267045,1.063874326045951,2,0
33536,1.0,0.3415697995808081,0.464761553744404,0.14659991247534168,1.0022435302842976,1.0587602385691188,2,0
33664,1.0,0.3435422944406143,0.4632349808725257,0.14905576095093387,1.0023675498930893,1.068204948125763,2,0
33792,1.0,0.34229847022754706,0.48083514250451437,0.15394689915890328,1.0026153948725502,1.0675498267173584,2,0
33920,1.0,0.346878119911167,0.4848327991305066,0.13794434254426743,1.0027392204178478,1.0539036164163291,2,0
34048,1.0,0.33938061032025557,0.47036436810355786,0.13957493548437713,1.0027392204178478,1.0711024920058851,2,0
34176,1.0,0.3382719225617097,0.4750747131937431,0.14562280725982216,1.0026153948725502,1.0637875291439245,2,0
34304,1.0,0.3346876034723054,0.47767384308649885,0.14137142403066558,1.0024915047267045,1.053079545115928,2,0
34432,1.0,0.3372040818283615,0.45392924032503973,0.16168777465655887,1.0021194458127354,1.0803684788319472,2,0
34560,1.0,0.33318137285143584,0.4628386239803114,0.15354231965928702,1.0021194458127354,1.0579721053667497,2,0
34688,1.0,0.3343105558613622,0.4874342729164627,0.14009115016311227,1.0027392204178478,1.0553787619609816,2,0
34816,1.0,0.3338205462140711,0.4909616467586293,0.13755413219392285,1.0029866780547583,1.051356920747123,2,0
34944,1.0,0.3500030006627976,0.4919914954946333,0.13059240637528724,1.0032338783315098,1.073290486992891,2,0
35072,1.0,0.3513557502568231,0.4940507016868734,0.14060673521650255,1.0032338783315098,1.0643599635424938,2,0
35200,1.0,0.35504065878465146,0.4870959804744055,0.14395142287871485,1.0029866780547583,1.0616623884711163,2,0
35328,1.0,0.3431693555060979,0.46442933380202966,0.15420752546294994,1.0023675498930893,1.0638697435201576,2,0
35456,1.0,0.3585301339334148,0.47342060589845425,0.1492908928786042,1.0024915047267045,1.0866665292711648,2,0
35584,1.0,0.34917978695453966,0.48041087748568,0.14454434046597606,1.0027392204178478,1.068204403584264,2,0
35712,1.0,0.34370870698232564,0.4780299175609098,0.1577132990126929,1.0027392204178478,1.058188488363717,2,0
35840,1.0,0.3305158009865337,0.4969444919771903,0.16967435303684106,1.0032338783315098,1.059273605743582,2,0
35968,1.0,0.37820310946782526,0.5153651645744235,0.1809006940611473,1.0038507576010838,1.085158784003129,2,0
36096,1.0,0.4517201429256048,0.5408412629292247,0.21276361903518193,1.0042201196159057,1.0856736613282925,2,-1
36224,1.0,0.4861574650340887,0.5448729317070418,0.25268570035042814,1.0044660434007024,1.0832974661119739,2,-1
36352,1.0,0.4740930108273285,0.5530285143404291,0.2489343148494949,1.0047117139286545,1.0789343587220102,2,-1
36480,1.0,0.41129798875501095,0.5370370786230452,0.2577426078531465,1.004097062540836,1.0713338628838132,2,-1
36608,1.0,0.3495052768393395,0.5249983020679182,0.21877603638171067,1.0038507576010838,1.0782468387364947,2,0
36736,1.0,0.3408596138215788,0.5319539105803109,0.2180552323825239,1.0039739418975728,1.066216755188211,2,0
36864,1.0,0.36306469345561043,0.5284444130293044,0.2016887438632847,1.0038507576010838,1.0628163742109629,2,0
36992,1.0,0.3540584333160707,0.5213303842065159,0.19873458643528474,1.0039739418975728,1.0737999752699783,2,0
37120,1.0,0.36656913532071095,0.5210941162641446,0.19431013326687713,1.004097062540836,1.0687995068133982,2,0
37248,1.0,0.3641202505467828,0.5105161159870389,0.1587561716808459,1.0038507576010838,1.06343371527032,2,0
37376,1.0,0.35521057127548317,0.4749155544212802,0.14327537317788192,1.0033573821759203,1.0740523166891982,2,0
37504,1.0,0.3422937654472588,0.5015601649149329,0.13739337374900945,1.0036041977073993,1.075747912402429,2,0
37632,1.0,0.33403216750813997,0.48755165963422387,0.155557318707448,1.003110310319889,1.057400440504137,2,0
37760,1.0,0.3644783648092975,0.4940426827269467,0.19199190389353105,1.0034808219392384,1.0695771843484494,2,0
37888,1.0,0.3637404273535665,0.4980521500103698,0.21820710564414514,1.003110310319889,1.072385889963859,2,0
38016,1.0,0.38615378716248244,0.49980481728841963,0.21344468710582112,1.0032338783315098,1.0545191976400672,2,0
38144,1.0,0.3929695393475086,0.49030259354656885,0.2078456141344464,1.0029866780547583,1.0662041533696434,2,0
38272,1.0,0.3848093818888041,0.47972798368308334,0.2130101790491942,1.0027392204178478,1.0758932477930587,2,0
38400,1.0,0.3522237769136947,0.4821491395132722,0.1930936537758658,1.0029866780547583,1.0651484197349501,2,0
38528,1.0,0.34698396557079636,0.4804794557828243,0.17586512980365931,1.0029866780547583,1.0556914117975589,2,0
38656,1.0,0.3438096194500963,0.5018836177195632,0.16190092021583874,1.0036041977073993,1.0514244941193098,2,0
38784,1.0,0.35568051791556116,0.4898032887068514,0.14667477023514497,1.0032338783315098,1.080068504144483,2,0
38912,1.0,0.332477584377486,0.4817525694831167,0.15172039223441072,1.0028629814496335,1.06964672948822,2,0
39040,1.0,0.3359438564996196,0.48723552679726934,0.15461831258094744,1.0027392204178478,1.0571262104020138,2,0
39168,1.0,0.33465186760617743,0.467932867365331,0.1628237610806871,1.0023675498930893,1.08271986734857,2,0
39296,1.0,0.33349621819037684,0.47532551272061807,0.16051184049940503,1.0026153948725502,1.0619998957020491,2,0
39424,1.0,0.33296957376289854,0.4889345200294103,0.1466034741918754,1.0029866780547583,1.0628229930661641,2,0
39552,1.0,0.3308018491664567,0.46870755761088084,0.14882982019495813,1.0028629814496335,1.088224518827681,2,0
39680,1.0,0.3313195614004537,0.4824716662787216,0.1516908523877768,1.003110310319889,1.061900683662229,2,0
39808,1.0,0.33382493867808555,0.4826115253823314,0.14348105112990936,1.0029866780547583,1.0573679831628269,2,0
39936,1.0,0.3327249846727509,0.46543050831955607,0.15392754523154498,1.0026153948725502,1.0807160358989611,2,0
40064,1.0,0.3316549576652882,0.46840125012591893,0.15467230103777108,1.0026153948725502,1.0600399499880568,2,0
40192,1.0,0.3352617732113399,0.48061645300351313,0.14769759222790668,1.0027392204178478,1.0623223920953497,2,0
40320,1.0,0.3386647368507837,0.4759701417457906,0.16881685005142189,1.0026153948725502,1.0805951055128566,2,0
40448,1.0,0.3492517906498305,0.49084222366763935,0.1559163402527103,1.003110310319889,1.0600611079793283,2,0
40576,1.0,0.34765103292546695,0.5075406092841016,0.14607664662465814,1.0034808219392384,1.0640689496028704,2,0
40704,1.0,0.35514316698518417,0.49074192914320475,0.1496069805378747,1.0033573821759203,1.08135906889843,2,0
40832,1.0,0.3554844918956189,0.49137644851741935,0.15212107490337087,1.0033573821759203,1.0666784262794418,2,0
40960,1.0,0.3542473847449799,0.492242074575443,0.18303673651333485,1.003110310319889,1.0681710060089058,2,0
41088,1.0,0.34312741457457663,0.46881299405920734,0.19916426595254214,1.0028629814496335,1.0738192226934686,2,0
41216,1.0,0.3296378466541286,0.4764418688771525,0.22707508230181958,1.0024915047267045,1.078360512223579,2,0
41344,1.0,0.38595756537167664,0.4987985533119912,0.29122936537143584,1.0029866780547583,1.0714330214766796,2,0
41472,1.0,0.4044834137160463,0.5094458609041541,0.2975834267721019,1.0032338783315098,1.0729352803613879,2,-1
41600,1.0,0.4490191503105979,0.5273987460776216,0.3055005061508344,1.0036041977073993,1.0792334023737236,2,-1
41728,1.0,0.42885896981867955,0.530141230230542,0.28676642628502585,1.0038507576010838,1.0719012099385665,2,-1
41856,1.0,0.42947532442941233,0.5073792040633806,0.22400155222484644,1.0034808219392384,1.0793091826691983,2,-1
41984,1.0,0.3770601114195401,0.48201724030842524,0.2026105105489616,1.0032338783315098,1.0725000802883446,2,0
42112,1.0,0.3796955669301917,0.48649500908872806,0.1760524008188549,1.0032338783315098,1.062744856153517,2,0
42240,1.0,0.35535320682127364,0.48030310334470283,0.18412971331251277,1.003110310319889,1.0664938426286354,2,0
42368,1.0,0.3378774631450454,0.45512592753959125,0.16063560916197545,1.0026153948725502,1.066705274404072,2,0
42496,1.0,0.34301880712216953,0.4828928450652433,0.1743445726502229,1.0029866780547583,1.0652011175413492,2,0
42624,1.0,0.33901067000173085,0.46645072106969077,0.18823063214169064,1.0026153948725502,1.0676573773185052,2,0
42752,1.0,0.3333707755311399,0.4543005723927032,0.1779447121391288,1.0024915047267045,1.0583227171019505,2,0
42880,1.0,0.32670393580733476,0.4873088969953886,0.17782653766953527,1.0028629814496335,1.068204066492275,2,0
43008,1.0,0.3313839635433438,0.47785415140559334,0.17814058041074216,1.0026153948725502,1.0680775190011549,2,0
43136,1.0,0.33357082156933165,0.4548696853734141,0.16762009323842714,1.0022435302842976,1.0637521364370874,2,0
43264,1.0,0.3228222660121543,0.47767384308649885,0.1783996575048181,1.0024915047267045,1.0674140377180248,2,0
43392,1.0,0.3194454821170424,0.48523639202632723,0.17134854851251963,1.0027392204178478,1.0545290343279228,2,0
43520,1.0,0.33201107768901195,0.47258266377086156,0.1673976142290102,1.0024915047267045,1.0833390917015042,2,0
43648,1.0,0.3370440446666372,0.49548599457484516,0.17819498585505036,1.0029866780547583,1.068462327715013,2,0
43776,1.0,0.3307206917696369,0.49421827836679105,0.17310997918969828,1.0029866780547583,1.0600255053942709,2,0
43904,1.0,0.31522018739457747,0.4794512828024274,0.1930834056499917,1.0026153948725502,1.061729399175438,2,0
44032,1.0,0.3289219640645556,0.49880843805021513,0.20012365377174826,1.003110310319889,1.0602358029598913,2,0
44160,1.0,0.35065203585506627,0.4936306840567718,0.19354308153791902,1.003110310319889,1.0701298137382973,2,0
44288,1.0,0.35771995617094915,0.47977948326520486,0.18603213619049025,1.0027392204178478,1.0549431623399443,2,0
44416,1.0,0.3544638981501467,0.4667559101891892,0.1997079316896393,1.0023675498930893,1.0566196202059257,2,0
44544,0.0,0.3341702238205481,0.44194924589273715,0.21624531268177596,1.0019952963906225,1.054191768048518,2,0
44672,0.0,0.3183891764926834,0.44699707919579873,0.23085516086277605,1.001871081929991,1.0618556381172921,2,0
44800,0.0,0.339524546202566,0.46304361432518143,0.26510934494463706,1.0019952963906225,1.0656023704883935,2,-1
44928,0.0,0.3724019716814834,0.48747130770795916,0.3149768454845129,1.0026153948725502,1.0470703376857715,2,-1
45056,0.0,0.4031478075555537,0.5439819718995456,0.29699583199260193,1.004097062540836,1.0696563020433736,2,-1
45184,0.0,0.41939195563097886,0.5527866161390801,0.28572260191300436,1.0044660434007024,1.072436482480144,2,-1
45312,0.0,0.47289934779574744,0.5799424793167997,0.30627126581185116,1.0055695760821457,1.0979213534230474,0,1
45440,0.0,0.47674900894411565,0.5937175505279221,0.3397939502592894,1.0059362912021022,1.10935603103575,0,1
45568,0.0,0.4992734003277744,0.5841243540442037,0.30630870595257087,1.0056918769068104,1.0959766687389896,0,-1
45696,0.0,0.44632996054255264,0.5939382136921648,0.26229402427794135,1.0058141152526048,1.1400042496107412,0,-1
45824,0.0,0.39491801474064336,0.586636882861226,0.2780770412111153,1.0055695760821457,1.0792837490030003,2,-1
45952,0.0,0.39397314442110376,0.5867781110559951,0.2178522480017896,1.0055695760821457,1.0767593899894063,2,-1
46080,0.0,0.36900548843439407,0.557458564278172,0.17077234481671733,1.004588910279602,1.0714337752985112,2,-1
46208,0.0,0.45094528725770017,0.5549904844118365,0.22407216054855325,1.004588910279602,1.089170162845996,2,-1
46336,0.0,0.3797414194902633,0.5394856738797436,0.3070836179462622,1.0042201196159057,1.0871789911444538,2,-1
46464,0.0,0.3970497894660535,0.5238473013958345,0.19650097882788747,1.0038507576010838,1.106418187723171,2,-1
46592,0.0,0.3976285798037188,0.5509664706154596,0.23236646351989387,1.0044660434007024,1.0661093817172635,2,-1
46720,0.0,0.3988306889358738,0.5630635863907724,0.2577982110115452,1.0048344544320031,1.0749726039581031,2,-1
46848,0.0,0.41782621624727845,0.5755359511634462,0.22266544767999746,1.0052022979066102,1.0746189694939834,2,-1
46976,0.0,0.463163508454661,0.5829626973511031,0.3519119257531763,1.0054472126958651,1.1071873898424227,0,1
47104,0.0,0.4781432021687935,0.5888253022456933,0.3968522083799092,1.0056918769068104,1.1254011615847375,0,1
47232,0.0,0.48823177953859387,0.5759151856210274,0.4132670165026978,1.0052022979066102,1.1194332412806205,0,1
47360,0.0,0.5086541022832523,0.580205717199308,0.4639396111705658,1.0053247866650505,1.1315683028043713,0,1
47488,0.0,0.48565980203728715,0.5802880405809431,0.4106499208489427,1.0054472126958651,1.1083671420807648,0,1
47616,0.0,0.44712392679931307,0.544461960859687,0.33385397713978465,1.0044660434007024,1.0886453674846408,2,1
47744,0.0,0.4189398583905879,0.5348044586026478,0.2964683597323988,1.0043431132076361,1.0887901201382615,2,-1
47872,0.0,0.44877495207444973,0.5317807270482846,0.2700770121941701,1.0043431132076361,1.0758906248783704,2,-1
48000,0.0,0.4638222013275199,0.5584216682811373,0.326163668036111,1.0049571318736141,1.0851825033981293,0,1
48128,0.0,0.4848878890055949,0.5878876925415857,0.3401221577475649,1.0056918769068104,1.1030039085572076,0,1
48256,0.0,0.5080135925965484,0.596351637387277,0.4522831907805403,1.0059362912021022,1.1266100236860839,0,1
48384,0.0,0.5074185813642118,0.6032714052311199,0.3914308314203292,1.0061804562416374,1.1610293399311344,0,-1
48512,0.0,0.47526848278425726,0.5936967527871352,0.4284386556276991,1.0058141152526048,1.1231573515927107,0,1
48640,0.0,0.4806666533085169,0.5861207069258573,0.4359708310561013,1.0055695760821457,1.1141503683411147,0,1
48768,0.0,0.48067781578115987,0.5929045923967575,0.48924272724965345,1.0058141152526048,1.1294640382970145,0,1
48896,0.0,0.4956741276558072,0.5953194358596008,0.5362512690728825,1.0059362912021022,1.1414588703232795,0,1
49024,0.0,0.47821863582776336,0.5972545028713997,0.537813506140009,1.006058404837703,1.1498540106899042,0,1
49152,0.0,0.5036397296754586,0.6098724256345157,0.54981326384981,1.0065462378831733,1.156296664110099,0,1
49280,0.0,0.5037475949542082,0.6096944304444152,0.5587114488551784,1.0064243726825695,1.1491291014834937,0,1
49408,0.0,0.4915150095426841,0.6026428370536445,0.5558329848413929,1.0061804562416374,1.1505007095330986,0,1
49536,0.0,0.4777301385825711,0.5965632594362436,0.5427927978488362,1.0059362912021022,1.1446619793153465,0,1
49664,0.0,0.45845055921962496,0.5930022031121212,0.5206573728568948,1.0058141152526048,1.1412141906453415,0,1
49792,0.0,0.46312747026005674,0.5999958726942405,0.5318292061121224,1.006058404837703,1.143395853235099,0,1
49920,0.0,0.48944776162167797,0.6025046722817246,0.5542850265838747,1.0061804562416374,1.1730512459792581,0,1
50048,0.0,0.49564908060509755,0.5996059178135839,0.5493863071939742,1.006058404837703,1.153160247617944,0,1
50176,0.0,0.48485081339642816,0.6010940288825306,0.5302860531706809,1.0061804562416374,1.1393495797382627,0,1
50304,0.0,0.4781779500432581,0.5973162467090962,0.5453457284113457,1.006058404837703,1.1450005889690142,0,1
50432,0.0,0.48032623549990483,0.6017064229291162,0.564572427575351,1.0061804562416374,1.1529984239812698,0,1
50560,0.0,0.5009210676482194,0.6239791122326511,0.5406717849118013,1.0070330804540046,1.158498980564774,0,-1
50688,0.0,0.4945152788337987,0.6209042043615718,0.5537375546692925,1.0069114623836124,1.1404077807360227,0,1
50816,0.0,0.48937455474059915,0.6254159512130865,0.5401739411136249,1.0070330804540046,1.1350055119973586,0,1
50944,0.0,0.4643588892319409,0.621226286431295,0.5433360239173873,1.0069114623836124,1.1535401850666815,0,-1
51072,0.0,0.49751279475352106,0.6132297335585257,0.5110405619720843,1.0066680411793234,1.1411388419950648,0,1
51200,0.0,0.5263678016311509,0.6202192160729646,0.5092651314353706,1.0069114623836124,1.156780289443758,0,-1
51328,0.0,0.5263507704784711,0.6066861279464296,0.48266630871133237,1.0065462378831733,1.1522198832413502,0,-1
51456,0.0,0.49201845592245164,0.5980616688578302,0.5228947357834876,1.0061804562416374,1.1312858187301138,0,1
51584,0.0,0.5012437682943249,0.5957442975032055,0.5239714217463362,1.006058404837703,1.136172549474386,0,1
51712,0.0,0.4920507474368697,0.5925545553929983,0.4774726068832782,1.006058404837703,1.1104036086202567,0,1
51840,0.0,0.49294405957213516,0.5942568539522037,0.5129176747382147,1.0059362912021022,1.1245433943121717,0,1
51968,0.0,0.49446749419375957,0.5888515179254492,0.4387239288016734,1.0058141152526048,1.0960379651704388,0,1
52096,0.0,0.4951511108940796,0.5706521417696785,0.4347354904082775,1.0052022979066102,1.1128492557798102,0,1
52224,0.0,0.4755650166473491,0.5698799883725346,0.49747175108272446,1.005079746337278,1.1150850082757549,0,1
52352,0.0,0.47898018230369754,0.5631602340967151,0.4740823682015092,1.0048344544320031,1.1111364896720457,0,1
52480,0.0,0.4890551909664734,0.5713602902446016,0.485393736496474,1.005079746337278,1.1256373545368676,0,1
52608,0.0,0.5002543879955398,0.5645425450146228,0.45626008304230037,1.0049571318736141,1.1094066785116978,0,1
52736,0.0,0.5077421936720744,0.5749518360622068,0.4470590054070014,1.0052022979066102,1.0994779852664374,0,1
52864,0.0,0.5041464825321599,0.5978887780751183,0.4533109723392096,1.006058404837703,1.1229698873192155,0,1
52992,0.0,0.4923993281011656,0.5926443935870259,0.4530864454402772,1.0059362912021022,1.1202703334687882,0,1
53120,0.0,0.49675067307391535,0.6072466492262556,0.45992956988630546,1.0064243726825695,1.1333849538383318,0,1
53248,0.0,0.517216441462666,0.5891914070058346,0.45966902543497173,1.0058141152526048,1.1398178055951924,0,1
53376,0.0,0.5113829480957437,0.5700973527542317,0.48860203879789094,1.0052022979066102,1.1074366332158785,0,1
53504,0.0,0.4880730274981485,0.5718734661296389,0.5095597749679563,1.0052022979066102,1.1119578187831871,0,1
53632,0.0,0.4960012590159936,0.5633011789324197,0.5246657236980969,1.0049571318736141,1.1150507233916376,0,1
53760,0.0,0.4739852229667169,0.5755899651748206,0.5564576363573291,1.0053247866650505,1.123802981553444,0,1
53888,0.0,0.4959658384681721,0.5721377332619779,0.5565716455541946,1.0052022979066102,1.1143610361201668,0,1
54016,0.0,0.4582830684972448,0.5623425518110183,0.5303935368256746,1.0048344544320031,1.1092824019053589,0,1
54144,0.0,0.484305845361573,0.5633644795968522,0.5442716453470019,1.0048344544320031,1.1115388368564265,0,1
54272,0.0,0.4743936323718047,0.5621837697816062,0.5167401185258077,1.0047117139286545,1.1020697538304536,0,1
54400,0.0,0.5017709520229786,0.5736101595483312,0.48471894653066505,1.005079746337278,1.1164171183660356,0,1
54528,0.0,0.436128524482155,0.5697031664305556,0.4805018934381933,1.0049571318736141,1.1208937266283496,0,1
54656,0.0,0.5450985931830933,0.569332448433627,0.3531299454078149,1.0049571318736141,1.1239255498323049,0,-1
54784,0.0,0.5427564518180045,0.561227748176065,0.3412223002673354,1.0047117139286545,1.1296965431950667,0,-1
54912,0.0,0.4998723491653151,0.5523231446391217,0.3326283053759386,1.0044660434007024,1.0968808937431695,0,-1
55040,0.0,0.4484420818489441,0.5467282694407908,0.4051680636978413,1.0042201196159057,1.101965565479227,0,1
55168,0.0,0.4299132295424772,0.5515453550821784,0.45227114986370814,1.0043431132076361,1.0880234210905768,0,-1
55296,2.0,0.43644377047004007,0.5417357825368574,0.469637395951036,1.004097062540836,1.075915700759398,0,-1
55424,2.0,0.42726537331395725,0.5286082035978228,0.5015758147535204,1.0038507576010838,1.0909791874122958,0,-1
55552,2.0,0.3691827098077061,0.5319598646721758,0.5131320206013946,1.0039739418975728,1.092865839063105,2,-1
55680,2.0,0.3776079361241676,0.5271350655465182,0.4954556924493987,1.0037275095661569,1.0949071338400411,2,-1
55808,2.0,0.39573582228032855,0.54295142166362,0.5021476724211437,1.004097062540836,1.083122633432114,0,-1
55936,2.0,0.413984927204889,0.5727274633926002,0.5067040311204398,1.005079746337278,1.125491731827466,0,-1
56064,2.0,0.4417619252645107,0.5924824289805767,0.5465666143010881,1.0058141152526048,1.1517415246675005,0,1
56192,2.0,0.48567108831517347,0.6126211393216682,0.5520945318929569,1.0065462378831733,1.1682876093979886,0,1
56320,2.0,0.46316378486006576,0.6157809380979159,0.5652684643167174,1.0066680411793234,1.1705183890959296,0,1
56448,2.0,0.45301362206674056,0.6090950162198997,0.5546397748428961,1.0064243726825695,1.154077960777176,0,1
56576,2.0,0.46509363397871356,0.612989532195945,0.5697287784676828,1.0065462378831733,1.1631613287463112,0,1
56704,2.0,0.5170979001356529,0.6095592412069113,0.5813900546054264,1.0064243726825695,1.1668915007052276,0,1
56832,2.0,0.47465380567112486,0.5987403362499851,0.5507169527932927,1.006058404837703,1.138394958118137,0,1
56960,2.0,0.4217485448298433,0.5730496480068006,0.547454773290381,1.005079746337278,1.1180202811893045,0,-1
57088,2.0,0.3519745573632101,0.548273805533058,0.5004957742644138,1.0044660434007024,1.0885042873890585,2,-1
57216,2.0,0.36212186341894925,0.5621110910686075,0.5218438363993506,1.0048344544320031,1.0938388982839726,0,-1
57344,2.0,0.383203463684495,0.5789946018634134,0.532277550483942,1.0054472126958651,1.1111945122613969,0,-1
57472,2.0,0.46982731845575687,0.6090144827447761,0.534710751277291,1.0065462378831733,1.1421961161745517,0,1
57600,2.0,0.500754441576795,0.6147434209473112,0.5186108275377933,1.0066680411793234,1.155529856499312,0,1
57728,2.0,0.5105675587212302,0.6020241040318858,0.531994048203469,1.0061804562416374,1.1612154817746605,0,1
57856,2.0,0.5032437720184957,0.5958475862894315,0.5745144756165398,1.0059362912021022,1.162659046660726,0,1
57984,2.0,0.47867790220785883,0.5846678442904394,0.5560170272583339,1.0055695760821457,1.1411954024221571,0,1
58112,2.0,0.49300938237770925,0.5957442650561463,0.555020613964121,1.0059362912021022,1.1500115314114259,0,1
58240,2.0,0.45993454826059665,0.5975353590830502,0.5682685933452145,1.006058404837703,1.1610195174953273,0,1
58368,2.0,0.48336377649060824,0.5948322541010966,0.5695575328914494,1.006058404837703,1.1551709150615743,0,1
58496,2.0,0.4850872956073806,0.5896924362281643,0.5718704349191727,1.0059362912021022,1.1400671419202097,0,1
58624,2.0,0.4865322500956256,0.5896210212807607,0.5690704960284598,1.0056918769068104,1.1426262988076543,0,1
58752,2.0,0.45603149000967524,0.5828168836167206,0.5825875835508567,1.0054472126958651,1.1364429639872446,0,1
58880,2.0,0.44882126324948635,0.5873161778088287,0.5937703013730667,1.0055695760821457,1.1442354685341565,0,1
59008,2.0,0.4748910469231246,0.5871911557709959,0.5587928555065914,1.0055695760821457,1.1410234858052948,0,1
59136,2.0,0.5220638365036802,0.5883355760725408,0.5702359285366424,1.0056918769068104,1.163012846313146,0,1
59264,2.0,0.5218222287632026,0.5914312103011837,0.5629797652912001,1.0058141152526048,1.155667776157188,0,1
59392,2.0,0.5133725643674564,0.5961227719227304,0.5798529081968008,1.0059362912021022,1.1444875793006972,0,1
59520,2.0,0.5019213669620832,0.6050441647670964,0.5699625532504455,1.0063024454959635,1.1678847965670895,0,1
59648,2.0,0.5057657917155903,0.5991053139925645,0.5793433754972543,1.006058404837703,1.1711863204830646,0,1
59776,2.0,0.5263364906128066,0.6063981791822497,0.5899079534440217,1.0063024454959635,1.1772665271883391,0,1
59904,2.0,0.533331025328892,0.6119829279864115,0.5885117938019032,1.0065462378831733,1.2005371653194852,0,-1
60032,2.0,0.5155373917682884,0.6029893813096349,0.6054172119788525,1.0061804562416374,1.1560083060052573,0,1
60160,2.0,0.5024110839996158,0.6119478766154676,0.5907672930402568,1.0065462378831733,1.1769876837657092,0,1
60288,2.0,0.506603144495572,0.6011413986679925,0.5776255620123901,1.0061804562416374,1.1584143507149889,0,1
60416,2.0,0.49026659118528737,0.5869491524222137,0.572150241132364,1.0056918769068104,1.1555274217114313,0,1
60544,2.0,0.48728481786623884,0.5836561748580255,0.5420330861342888,1.0056918769068104,1.1718165171748527,0,1
60672,2.0,0.4920347054774774,0.5797594508385071,0.5417369792907901,1.0054472126958651,1.160563386265688,0,1
60800,2.0,0.48508917200156115,0.5884096052248398,0.5410612871536525,1.0058141152526048,1.1809067272106142,0,1
60928,2.0,0.4786894650463266,0.6033170792286687,0.5575514695402883,1.0063024454959635,1.1649089685029732,0,1
61056,2.0,0.5159500734599881,0.6098491229959226,0.5789525167571298,1.0065462378831733,1.171421250011144,0,1
61184,2.0,0.5323375085728191,0.6098512432129436,0.573696995851994,1.0065462378831733,1.1788121370052445,0,1
61312,2.0,0.5312343056826715,0.602247592476422,0.5632740296497808,1.0063024454959635,1.1579888807099905,0,1
61440,2.0,0.5051877070997938,0.6087606861995163,0.5959953526913601,1.0065462378831733,1.1824648789957808,0,1
61568,2.0,0.5144654432759376,0.6076817605598053,0.569301491168744,1.0065462378831733,1.1757739569649326,0,1
61696,2.0,0.507141999964914,0.6012292292424762,0.5561311227934029,1.0063024454959635,1.172123294786359,0,1
61824,2.0,0.49472537989913523,0.5993301879674712,0.5754856990604296,1.006058404837703,1.1733952881702543,0,1
61952,2.0,0.47479030980932674,0.5876967697044235,0.577731009913828,1.0056918769068104,1.156151335426076,0,1
62080,2.0,0.4627492775341742,0.5794808491503181,0.5650903703272002,1.0054472126958651,1.1493070662622795,0,1
62208,2.0,0.456129010369873,0.5878242424908027,0.5903860762294967,1.0058141152526048,1.1526363234698556,0,1
62336,2.0,0.48190910597786396,0.610990464213642,0.5582338299419707,1.0069114623836124,1.181129740229824,0,1
62464,2.0,0.5027248267540859,0.6263286586307564,0.5699478765251693,1.007397565508174,1.1952484667950747,0,-1
62592,2.0,0.5384531024476824,0.6337212319148009,0.4676337947219796,1.007518937742366,1.2356580452519361,0,-1
62720,2.0,0.5550025240773829,0.6321751846449346,0.47752027548486575,1.007397565508174,1.214884556118327,0,-1
62848,2.0,0.5437448946410521,0.6108948129661058,0.5631048972989234,1.0065462378831733,1.1880041939862958,0,1
62976,2.0,0.5254625736698968,0.6000994015918689,0.615111408918934,1.0061804562416374,1.1929180896884937,0,1
63104,2.0,0.4923493447752929,0.5910246920047328,0.5887334852348055,1.0059362912021022,1.1843796706041982,0,1
63232,2.0,0.5013403727077945,0.5893661514554659,0.5543167443281026,1.0059362912021022,1.1566242477675075,0,1
63360,2.0,0.5117235954245514,0.5873191915614238,0.5536800738879303,1.0058141152526048,1.1725323780366232,0,1
63488,2.0,0.5512456499958773,0.5876720261167457,0.4225393420589024,1.0058141152526048,1.1546481501849823,0,-1
63616,2.0,0.42432574669837264,0.585458510440058,0.3292209358757038,1.0056918769068104,1.110708326842228,0,-1
63744,2.0,0.432742220095365,0.5752499868029836,0.32061934630557215,1.0053247866650505,1.1103847413880745,0,-1
63872,2.0,0.425674437883161,0.5746176078030186,0.3486118227275736,1.0053247866650505,1.1201540940834327,0,-1
64000,2.0,0.5103826893005196,0.5652286368093604,0.4607282689880473,1.0049571318736141,1.1539385251960712,0,-1
64128,2.0,0.47563203950783217,0.5583078008960676,0.5559792733618332,1.0048344544320031,1.1568378569267501,0,1
64256,2.0,0.4942352505405278,0.5684025279021279,0.5499293287126084,1.005079746337278,1.1564504453118916,0,1
64384,2.0,0.48794748792234083,0.5666593577692614,0.5617623086149146,1.0052022979066102,1.1507547265736322,0,1
64512,2.0,0.46413907746609057,0.5636837644271754,0.5732631915802399,1.005079746337278,1.1388374471974296,0,1
64640,2.0,0.4797326819497382,0.5700973527542316,0.5353819687265268,1.0052022979066102,1.132019617236623,0,1
64768,2.0,0.4893979003687457,0.5727374815242622,0.5319603104488961,1.0052022979066102,1.145071375503574,0,1
64896,2.0,0.4878283789038305,0.5647295974026951,0.5207214591671666,1.0049571318736141,1.129528812403088,0,1
65024,2.0,0.48003510035660957,0.5626475186079688,0.4969420783841237,1.0049571318736141,1.12803229231646,0,1
65152,2.0,0.5245292528005534,0.5705801972226215,0.5399379475985109,1.0052022979066102,1.1502111900018395,0,1
65280,2.0,0.5015000479915953,0.5718474490602363,0.576977829294393,1.0052022979066102,1.1409024404721897,0,1
65408,2.0,0.5079241262335464,0.5818099055636035,0.572674662781141,1.0054472126958651,1.1466037805844458,0,1
65536,2.0,0.4898794405501698,0.5935660770311398,0.5553939432458672,1.0058141152526048,1.14449120015752,0,1
65664,2.0,0.4921550455586488,0.5766812317997202,0.5807455444430771,1.0052022979066102,1.1389107801946499,0,1
65792,2.0,0.5058786316288313,0.5880472223677427,0.5515140626038477,1.0056918769068104,1.123330568064504,0,1
65920,2.0,0.5204691399982126,0.586444473080853,0.5322286005708184,1.0056918769068104,1.1493876126480025,0,1
66048,2.0,0.5306485245529654,0.5782708131069373,0.5331929511158945,1.0054472126958651,1.1390526184302474,0,1
66176,2.0,0.5225896188009057,0.589274851065112,0.481711304008258,1.0059362912021022,1.1453474860513142,0,1
66304,2.0,0.5043283415831175,0.5828155084966125,0.5480030195917704,1.0055695760821457,1.155630732378649,0,1
66432,2.0,0.5013308784548722,0.5794808547893017,0.5139951985272698,1.0054472126958651,1.1275797960963576,0,1
66560,2.0,0.49676106350999943,0.5829926758661652,0.5075907793340415,1.0055695760821457,1.1532375550224654,0,1
66688,2.0,0.5312318459095544,0.5750603787818714,0.5464804452578164,1.0053247866650505,1.1435427287959865,0,1
66816,2.0,0.536677829889476,0.5839016708275234,0.551267407200435,1.0055695760821457,1.1554629187161387,0,1
66944,2.0,0.5332667997605341,0.6023569508791742,0.5560517696863346,1.0061804562416374,1.159524475411106,0,1
67072,2.0,0.509803240540081,0.5941627688901939,0.5577811654839993,1.0059362912021022,1.1561544427430628,0,1
67200,2.0,0.5054070549979409,0.599929384969978,0.5267226074166446,1.006058404837703,1.1514329724301324,0,1
67328,2.0,0.5060287904149693,0.5999415042670558,0.5144340368435293,1.006058404837703,1.1595843198721956,0,1
67456,2.0,0.5098709465156042,0.5934192166139068,0.5479871620288794,1.0058141152526048,1.1526706739910384,0,1
67584,2.0,0.5169694737555479,0.5961333881085805,0.5097741414836475,1.0059362912021022,1.163466929433442,0,1
67712,2.0,0.5364005285159611,0.5837900157017667,0.5110291446784669,1.0054472126958651,1.1433090275983857,0,1
67840,2.0,0.5007270608792429,0.567884419388346,0.519651166150253,1.0049571318736141,1.1307422826680495,0,1
67968,2.0,0.521197337936901,0.5526941977337102,0.4739573538024322,1.0044660434007024,1.1107893214309328,0,-1
68096,2.0,0.4883392154847139,0.5368123682881051,0.5088560114241316,1.0039739418975728,1.0907784613836582,0,-1
68224,2.0,0.4505871973923553,0.5380795867624676,0.5382102182958309,1.0039739418975728,1.106786814014238,0,-1
68352,2.0,0.39007701024600866,0.5427766466781636,0.49489270392619283,1.0042201196159057,1.0979495619666855,0,-1
68480,2.0,0.3421859709975313,0.5564568603212713,0.5159854399087404,1.004588910279602,1.1011176253711321,0,-1
68608,2.0,0.40563771122361697,0.580670010884971,0.5410916198732562,1.0054472126958651,1.1359333367742066,0,-1
68736,2.0,0.4300255753053875,0.582373546656803,0.5505831283321982,1.0054472126958651,1.141068021557198,0,1
68864,2.0,0.3927759728700899,0.586636882861226,0.5108256237659907,1.0055695760821457,1.1274941655549213,0,-1
68992,2.0,0.38250601579556637,0.5925704674933714,0.5264598310891307,1.0058141152526048,1.1284566286883522,0,-1
69120,2.0,0.4015192215034121,0.5904182811768637,0.5351283232342364,1.0056918769068104,1.146465377143098,0,-1
69248,2.0,0.482684055798919,0.6071183801444363,0.559165032913141,1.0064243726825695,1.1649308769800488,0,1
69376,2.0,0.44946857698383413,0.5963851374005952,0.5728163728247632,1.006058404837703,1.1593407703854843,0,1
69504,2.0,0.4617259266215307,0.5969070865283443,0.586480542267457,1.0061804562416374,1.1577731174092751,0,1
69632,2.0,0.4302596314376702,0.5918848256774829,0.5935391955042734,1.0059362912021022,1.1568880287500196,0,1
69760,2.0,0.46601481793053384,0.5950169207117995,0.600998760630414,1.0059362912021022,1.1272623226487877,0,1
69888,2.0,0.4816173170836964,0.5986809550754314,0.6004032335776492,1.0061804562416374,1.1470253545740907,0,1
70016,2.0,0.4949796277695475,0.5978476331782305,0.5785338300666266,1.0061804562416374,1.1514742334690649,0,1
70144,2.0,0.46079001691235466,0.6008979011923968,0.5492439178765008,1.0063024454959635,1.1441782921121202,0,1
70272,2.0,0.4770863063216888,0.5980726679397689,0.5626439199807658,1.0063024454959635,1.1740311350546677,0,1
70400,2.0,0.4489054406409336,0.5985045361773187,0.521002068847131,1.0063024454959635,1.1535935993150983,0,1
70528,2.0,0.45928723968872537,0.5869458609346092,0.5546313783930139,1.0058141152526048,1.1418157555654043,0,1
70656,2.0,0.4707304882016354,0.5750850673007388,0.5354656697939404,1.0054472126958651,1.1296363855909355,0,1
70784,2.0,0.4901521877772587,0.566206014903594,0.5038426007405398,1.0052022979066102,1.1270911179678789,0,1
70912,2.0,0.49183574586085327,0.5742539990044765,0.5271457711490793,1.0054472126958651,1.1280146414600583,0,1
71040,2.0,0.46691248492319026,0.5748105917640715,0.5264295677030363,1.0055695760821457,1.1430833225011974,0,1
71168,2.0,0.48519482273644426,0.591609640044184,0.5560902239713839,1.0059362912021022,1.141476613083893,0,1
71296,2.0,0.5045313490107664,0.5938568153327858,0.5541320572948613,1.006058404837703,1.160209333043087,0,1
71424,2.0,0.5097900780573134,0.5930963253163307,0.5562262039665015,1.0059362912021022,1.155373170021927,0,1
71552,2.0,0.5048671862755025,0.5941548410515499,0.558470502874427,1.0059362912021022,1.1579360007416428,0,1
71680,2.0,0.4884271444696658,0.594977160316966,0.5766133643039937,1.006058404837703,1.17983003458198,0,1
71808,2.0,0.48130861896277505,0.5950808702901762,0.5998779608708111,1.0059362912021022,1.1711319043368948,0,1
71936,2.0,0.5420336662200136,0.5993307321802849,0.5672564705497979,1.006058404837703,1.1679722808098154,0,1
72064,2.0,0.5268365129616349,0.5966159928561353,0.5434567506161255,1.0059362912021022,1.1706894151966365,0,1
72192,2.0,0.5134590292808414,0.5867708141534698,0.5421420018109868,1.0055695760821457,1.1578478955800624,0,1
72320,2.0,0.5052938373120441,0.5736302085290835,0.5382488371464564,1.0052022979066102,1.1440155320918084,0,1
72448,2.0,0.4754677273577399,0.5656431162117276,0.5123104050335698,1.005079746337278,1.131909349960019,0,1
72576,2.0,0.43047012525047396,0.5675386907291307,0.5214648751292891,1.0053247866650505,1.1388735493101798,0,1
72704,2.0,0.4597650138902048,0.5713007266174638,0.5603574137779926,1.0054472126958651,1.1438412617614921,0,1
72832,2.0,0.49263856365076386,0.5882779551694779,0.5819041005972603,1.0059362912021022,1.141888805803925,0,1
72960,2.0,0.49824798289308664,0.5909993274559933,0.5903992065810085,1.0059362912021022,1.1457674314868656,0,1
73088,2.0,0.48329009447087007,0.5984988210287622,0.5853978909982194,1.0061804562416374,1.1537485529247067,0,1
73216,2.0,0.5127916536349695,0.6034801795280166,0.5769909721627239,1.0064243726825695,1.1617159206664227,0,1
73344,2.0,0.5359010562531517,0.5959505914391816,0.5425008439953769,1.0061804562416374,1.1661443369305526,0,1
73472,2.0,0.5224197878238471,0.5966794998274287,0.5381697127566929,1.006058404837703,1.1592694646314474,0,1
73600,2.0,0.4945335587972264,0.5988635309100313,0.5521922289489868,1.0061804562416374,1.1522881501378774,0,1
73728,2.0,0.47064826769841794,0.5977448940710306,0.555383511529276,1.006058404837703,1.1560943811491124,0,1
73856,2.0,0.4932306911434181,0.6079720944349291,0.5486038083103308,1.0064243726825695,1.161049732755405,0,1
73984,2.0,0.4948995447769887,0.6085706746862162,0.5629546892009373,1.0064243726825695,1.162312355675673,0,1
74112,2.0,0.505269796971497,0.6049623821134815,0.5736704036410019,1.0063024454959635,1.1647934787273468,0,1
74240,2.0,0.510960668552302,0.6102371038015645,0.547016333395379,1.0065462378831733,1.1600258301783752,0,1
74368,2.0,0.518182165010866,0.6049659314083273,0.5744907590521483,1.0063024454959635,1.174157138517359,0,1
74496,2.0,0.5439199819062873,0.6053464935934962,0.5506586886653374,1.0064243726825695,1.1644296552212339,0,1
74624,2.0,0.5531161471611614,0.6081766298352724,0.5584432674152248,1.0065462378831733,1.162948977107629,0,1
74752,2.0,0.5415929732857578,0.6007809165086725,0.599678961121682,1.0061804562416374,1.1453697212246652,0,1
74880,2.0,0.516557081355184,0.5877507183048261,0.5935220801720545,1.0056918769068104,1.1582741967711063,0,1
75008,2.0,0.5406846825561041,0.6027714504534857,0.5825952749463277,1.0061804562416374,1.1607625545111748,0,1
75136,2.0,0.5328298957723111,0.5998465450526197,0.5618156861607566,1.006058404837703,1.1539988812781428,0,1
75264,2.0,0.5230721424118588,0.5932941929675444,0.5473461292102867,1.0058141152526048,1.1543288608328146,0,1
75392,2.0,0.4997972405960039,0.5994004027914194,0.5781416975429371,1.006058404837703,1.1803372993595305,0,1
75520,2.0,0.45464824852914737,0.5898425561276334,0.5696410388135688,1.0056918769068104,1.1662823998639833,0,1
75648,2.0,0.4755568994062239,0.5953845507185941,0.5938423216752421,1.0059362912021022,1.1676092868193166,0,1
75776,2.0,0.4778968286141806,0.6056568748157489,0.5590296558044637,1.0064243726825695,1.171655976500389,0,1
75904,2.0,0.48799322502095893,0.5998237174096416,0.5557514968603969,1.0061804562416374,1.1719302288543085,0,1
76032,2.0,0.48055013627212745,0.6001771364017096,0.5631228148054577,1.0061804562416374,1.172906877522887,0,1
76160,2.0,0.47597728669237815,0.5874141550274002,0.566058107228992,1.0056918769068104,1.1701488325797442,0,1
76288,2.0,0.49893091549155943,0.5883355760725408,0.5481568701313513,1.0056918769068104,1.156115512890001,0,1
76416,2.0,0.5058251120553798,0.5947266612091419,0.5841448272929498,1.0059362912021022,1.159989821503258,0,1
76544,2.0,0.5064054426319539,0.5910625846778486,0.5675581392780965,1.0058141152526048,1.1432565561111858,0,1
76672,2.0,0.49683844204963734,0.6011213654560686,0.5532288537916302,1.0061804562416374,1.1385368185856646,0,1
76800,2.0,0.4989346975575235,0.5899260170684061,0.5819042949990524,1.0058141152526048,1.1504802910942902,0,1
76928,2.0,0.5173072898144914,0.5977800117682784,0.5960402777419892,1.006058404837703,1.144873452590459,0,1
77056,2.0,0.5151626488137129,0.5986808597961973,0.5268008600993016,1.006058404837703,1.1527720388024223,0,1
77184,2.0,0.5235349463819786,0.5890216671201692,0.5685023207365141,1.0056918769068104,1.1476103259562396,0,1
77312,2.0,0.5129387677280627,0.5926402345595448,0.5645399912248615,1.0058141152526048,1.1613037908406758,0,1
77440,2.0,0.49769825769512643,0.5829254928042271,0.5498254278776712,1.0054472126958651,1.1491697088565251,0,1
77568,2.0,0.505337365180611,0.5905340528442814,0.5458491171896267,1.0056918769068104,1.1514224875293328,0,1
77696,2.0,0.5016803000083631,0.5938953192163292,0.5451631411493431,1.0058141152526048,1.1475564745285807,0,1
77824,2.0,0.49411951878716454,0.5936913925736611,0.5318819305025088,1.0058141152526048,1.1396107791110854,0,1
77952,2.0,0.48680603382977244,0.6034469684176106,0.552586256379506,1.0061804562416374,1.1271083405648255,0,1
78080,2.0,0.50370955852382,0.5967958031968044,0.5699449784256286,1.0059362912021022,1.139197029760736,0,1
78208,2.0,0.5068774527449259,0.5931345766128309,0.5752516417895176,1.0058141152526048,1.1296540738543581,0,1
78336,2.0,0.5005133519939875,0.5864956285201708,0.5609684486787114,1.0055695760821457,1.1323505731045955,0,1
78464,2.0,0.4949486057382749,0.5859297840886952,0.5552322599830262,1.0055695760821457,1.1282174154209583,0,1
78592,2.0,0.49474801403873775,0.5894010272949238,0.5382530275349622,1.0056918769068104,1.1315282750097015,0,1
78720,2.0,0.508689600831098,0.5872070246128394,0.5096587624900704,1.0056918769068104,1.1349676351799427,0,1
78848,2.0,0.48417568863913135,0.5896209779154616,0.5503398233568025,1.0056918769068104,1.1419833648516733,0,1
78976,2.0,0.4988889882734099,0.5925864464387532,0.5471641129929138,1.0058141152526048,1.1194306667158422,0,1
79104,2.0,0.49491278333751415,0.5867365053080341,0.5603772180763884,1.0055695760821457,1.139193365604411,0,1
79232,2.0,0.5112936426229622,0.5884367873856903,0.5479535362471716,1.0056918769068104,1.1367273173799817,0,1
79360,2.0,0.499146904710821,0.5875895357946072,0.527628048337491,1.0056918769068104,1.1230989406481389,0,1
79488,2.0,0.48887395266204636,0.581796438846666,0.5451825476907655,1.0054472126958651,1.1251658471059907,0,1
79616,2.0,0.48977235325371404,0.5823218731150104,0.5522286911744161,1.0054472126958651,1.128259302798152,0,1
79744,2.0,0.4886612737701245,0.5760770380169385,0.4983475336693965,1.0052022979066102,1.1270312150266322,0,1
79872,2.0,0.4422492578704528,0.5666670002306448,0.5460513178635996,1.0048344544320031,1.1151209186593205,0,-1
80000,2.0,0.4522971264602153,0.5700385430363459,0.5297906508726998,1.0049571318736141,1.110665854068471,0,-1
80128,2.0,0.4643143524524318,0.5704047272724607,0.5365663658793952,1.0049571318736141,1.1332096488990238,0,1
80256,2.0,0.5263492995139228,0.5805281191734297,0.4980679648532558,1.0053247866650505,1.121475828515675,0,1
80384,2.0,0.5315582291341763,0.5789393741716017,0.4976222496528417,1.0053247866650505,1.1252734114704497,0,1
80512,2.0,0.5059936845388784,0.5678380005122043,0.49340892701114925,1.0049571318736141,1.112228688709488,0,1
80640,2.0,0.5029676243721141,0.5686562023455535,0.510339774126894,1.0049571318736141,1.1274314211209342,0,1
80768,2.0,0.4759892488281617,0.5728668305371377,0.5141507150255058,1.005079746337278,1.1278628771650103,0,1
80896,2.0,0.4979687051274002,0.5930090696508663,0.5326247316160426,1.0058141152526048,1.1463530650297502,0,1
81024,2.0,0.4961740198712634,0.5925988309495489,0.5296877068208494,1.0058141152526048,1.136471116689069,0,1
81152,2.0,0.48839611603068966,0.6054427682366496,0.4571133401099767,1.0063024454959635,1.1299549960386122,0,-1
81280,0.0,0.5055464989231223,0.5999247784113889,0.4605993375889348,1.006058404837703,1.1373198892579404,0,1
81408,0.0,0.518796958157649,0.6005617868359685,0.5316597106688327,1.006058404837703,1.1471362882312957,0,1
81536,0.0,0.5492869071795544,0.6092297704339102,0.5393818532843317,1.0064243726825695,1.1406015981932096,0,-1
81664,0.0,0.528191120224678,0.5994663493991408,0.5109620401088801,1.006058404837703,1.1408989374293217,0,1
81792,0.0,0.5383647664863233,0.6020241040318858,0.5402836057289747,1.0061804562416374,1.1744576917472744,0,-1
81920,0.0,0.4911406860670722,0.5825806450321596,0.5299720112923656,1.0055695760821457,1.1441513903856362,0,1
82048,0.0,0.4552218308102022,0.551338962158082,0.4555741308894515,1.0048344544320031,1.1279049733029745,0,1
82176,0.0,0.48695533205045166,0.5499883420175545,0.45934022487299875,1.0047117139286545,1.1293474273376054,0,1
82304,0.0,0.4693271634597099,0.5454679026395518,0.41510474687658117,1.004588910279602,1.1156090291596505,0,1
82432,0.0,0.49099035181749656,0.544691892120806,0.4203993316762918,1.0044660434007024,1.1199472796212901,0,1
82560,0.0,0.47910651844536073,0.5347210795448731,0.41057651765521513,1.0042201196159057,1.1044677058597292,0,1
82688,0.0,0.4378376435059944,0.5186562108696117,0.3679720906249086,1.0039739418975728,1.0916993109248108,2,1
82816,0.0,0.41576981315085954,0.49019506066584334,0.3151502555817182,1.0036041977073993,1.086824217589946,2,-1
82944,0.0,0.4291090216708373,0.47677052071012815,0.27401184503129955,1.0034808219392384,1.0873574904713932,2,-1
83072,0.0,0.4336552463617838,0.4719081829450779,0.27274049245358195,1.0034808219392384,1.0839598636578287,2,-1
83200,0.0,0.4253413245946055,0.456215184086474,0.2530670211057318,1.0033573821759203,1.0898056260248985,2,-1
83328,0.0,0.44247170120659174,0.4737099077251294,0.24783213711029198,1.0036041977073993,1.0862215712731154,2,-1
83456,0.0,0.44010543311707684,0.5092890371812129,0.25374972426842113,1.004097062540836,1.0966271751322834,2,-1
83584,0.0,0.4405704234559624,0.5396052374666171,0.27473977673795236,1.0047117139286545,1.0893569065961926,2,1
83712,0.0,0.45605098442118863,0.5694917980509316,0.28692148468823475,1.0052022979066102,1.0884248644690193,0,1
83840,0.0,0.43104868467642987,0.5692340713007721,0.31836884507799307,1.0053247866650505,1.1006555231762238,0,1
83968,0.0,0.4253966661436687,0.5618932395989,0.3035151840828591,1.0053247866650505,1.0940755275102776,0,1
84096,0.0,0.41980101087805644,0.5676910848618197,0.36925562897265435,1.0052022979066102,1.094951604111785,0,1
84224,0.0,0.4560854083989679,0.5661876054076657,0.4269648007288746,1.0052022979066102,1.120792394499619,0,1
84352,0.0,0.4749669817308756,0.5626430355633265,0.514652021951239,1.0049571318736141,1.1194094073801888,0,1
84480,0.0,0.49076741840476606,0.5739123621540577,0.5463094320317519,1.0052022979066102,1.1109715081494294,0,1
84608,0.0,0.49815348546323107,0.5854130801844087,0.5609981647224113,1.0055695760821457,1.1217518307515684,0,1
84736,0.0,0.5116853032831825,0.5961651753065914,0.5598860947352845,1.0059362912021022,1.134011076091741,0,1
84864,0.0,0.506042099417202,0.5921964940832197,0.5546007514880327,1.0058141152526048,1.1258820821962252,0,1
84992,0.0,0.4889804878321732,0.5937175505279222,0.518464415503046,1.0059362912021022,1.12654901626851,0,1
85120,0.0,0.4682589395099161,0.5963754094987052,0.4963825143553091,1.0059362912021022,1.1293665164469253,0,1
85248,0.0,0.47224679838622907,0.6004135123470463,0.4628845477811128,1.006058404837703,1.1225416620916007,0,1
85376,0.0,0.4929348528049641,0.5959438586051875,0.5141107515151098,1.0059362912021022,1.1282384532241008,0,1
85504,0.0,0.4494925222911711,0.5798776917592936,0.5126500799100349,1.0053247866650505,1.130863051600549,0,1
85632,0.0,0.43854884722429377,0.5645398530494248,0.5024292023038871,1.0048344544320031,1.1111836633643537,0,1
85760,0.0,0.4397725526953568,0.5550475711714885,0.47157001360250717,1.004588910279602,1.1133151251286348,0,1
85888,0.0,0.4745031715865828,0.5623218823800382,0.40752505321809224,1.0049571318736141,1.1051546638798355,0,1
86016,0.0,0.487646052124241,0.5633097410152457,0.365993268270992,1.0054472126958651,1.115351129674314,0,1
86144,0.0,0.46938004284386,0.5588397853787446,0.36046755752228915,1.005079746337278,1.0982252558324905,0,1
86272,0.0,0.45060555452478257,0.5501061829825412,0.32863471170397307,1.0048344544320031,1.097184895660155,0,1
86400,0.0,0.43370389874772725,0.5119120617139685,0.31367250687330833,1.0039739418975728,1.079896409347396,2,-1
86528,0.0,0.43555427216049125,0.4830549657989012,0.27839963058581657,1.0032338783315098,1.0782355312701928,2,-1
86656,0.0,0.393311099612551,0.46170219345468194,0.21677410302872988,1.0029866780547583,1.0810450059936814,2,0
86784,0.0,0.38991055484704423,0.474649107799433,0.27209314928602507,1.0033573821759203,1.0933954438382805,2,3
86912,0.0,0.47205158362498845,0.48865265721298473,0.3217463082074532,1.0033573821759203,1.098492900041679,2,-1
87040,0.0,0.42942344400708077,0.5027440359980808,0.32012133407105353,1.0034808219392384,1.0906311783668463,2,-1
87168,0.0,0.40637167112252787,0.5129903162422654,0.3506886983856658,1.0032338783315098,1.0717826253086815,2,-1
87296,0.0,0.39833615031245484,0.5086978402050635,0.3605711665704748,1.003110310319889,1.0543276261781518,2,-1
87424,3.0,0.41452219934027207,0.5161535195160766,0.35295110779884803,1.0032338783315098,1.0697348135852045,2,-1
87552,3.0,0.4460276557703714,0.49433279391851637,0.3349955906701419,1.0028629814496335,1.065062403680015,2,-1
87680,3.0,0.4508674431224728,0.5008429843924946,0.28252025833041006,1.0036041977073993,1.0696030781704298,2,2
87808,3.0,0.41322206946479306,0.5043530385305409,0.28199284250729195,1.0037275095661569,1.0785347927093463,2,2
87936,3.0,0.41472082828298235,0.537952555090103,0.29153847782575243,1.0044660434007024,1.0725647743666855,2,-1
88064,3.0,0.419929635561911,0.5813001976542835,0.32531970467073795,1.0055695760821457,1.083827301459133,0,-1
88192,3.0,0.43260112789061467,0.5757521282464835,0.3297165461895358,1.0053247866650505,1.07720717158809,0,-1
88320,3.0,0.4920668553913087,0.578855111375465,0.34416101314845626,1.0053247866650505,1.0977458113026128,0,-1
88448,3.0,0.49141811089772774,0.564992462309607,0.393701061952346,1.0049571318736141,1.1012835487271015,0,2
88576,3.0,0.47268248344212915,0.5515799626334752,0.39788758520254613,1.0044660434007024,1.0902547222797698,0,2
88704,3.0,0.47237553132085275,0.5679441731094659,0.40248891543511833,1.0049571318736141,1.1066341127761725,0,2
88832,3.0,0.47361014851429833,0.5732411618955687,0.414678994023644,1.0053247866650505,1.103615073391466,0,2
88960,3.0,0.49010681399487027,0.5704497077243034,0.375327511967868,1.005079746337278,1.1017978429782695,0,2
89088,3.0,0.4872800245081012,0.5551287107481345,0.3603226252711143,1.0049571318736141,1.113726825104777,0,2
89216,3.0,0.4588654380352179,0.5200654202406001,0.32759773303053685,1.004097062540836,1.0941215281054704,2,2
89344,3.0,0.37702555575384716,0.4937644492817869,0.30567457206845894,1.0034808219392384,1.0807063605671168,2,-1
89472,3.0,0.4242619006048859,0.478753737421946,0.3037128559707808,1.0032338783315098,1.0781882296986849,2,2
89600,3.0,0.45636873860321525,0.48899276986913526,0.3259225386411338,1.0033573821759203,1.0812445350486084,2,2
89728,3.0,0.4677757637602786,0.5306110286274478,0.3574205145105725,1.0043431132076361,1.1514764188189963,0,-1
89856,3.0,0.4833210351936939,0.535958190168424,0.4073820887143797,1.0042201196159057,1.1152854716759877,0,2
89984,3.0,0.4793498973938013,0.5458538421075076,0.4088187259688478,1.0044660434007024,1.1077463730048356,0,2
90112,3.0,0.4790370762358205,0.5611265802224679,0.41328951402252256,1.0048344544320031,1.109863803065471,0,2
90240,3.0,0.45327413546471623,0.5442949535548931,0.4135600049370381,1.0042201196159057,1.0993832674739645,0,2
90368,3.0,0.4543149740398975,0.5394856738797436,0.4277384715026405,1.0042201196159057,1.0863437642155362,0,2
90496,3.0,0.42409475141076064,0.552580651019024,0.39824549973699824,1.0044660434007024,1.0903615086742016,0,2
90624,3.0,0.4143905541066589,0.5312482350356416,0.4156533034830321,1.0038507576010838,1.0825912897616483,2,-1
90752,3.0,0.42397942525455296,0.5418847325257846,0.4329295208985336,1.0042201196159057,1.0624903440082265,2,-1
90880,3.0,0.4466498980637558,0.5582026198404375,0.4474613809651795,1.004588910279602,1.0633584647561931,0,-1
91008,3.0,0.4753260139014194,0.5541049114871544,0.42288912745229257,1.0044660434007024,1.0804013350343307,0,2
91136,3.0,0.5025823777436095,0.5547711225093811,0.3821469436681552,1.0044660434007024,1.0814013377379417,0,2
91264,3.0,0.4684078460714353,0.5409249834284746,0.3680175916056195,1.004097062540836,1.0993574805126751,0,2
91392,3.0,0.45750822096258087,0.532270809181326,0.32180196599423333,1.0038507576010838,1.0657902075311474,2,-1
91520,3.0,0.4648501894073737,0.5200655133899499,0.3378950492871361,1.0036041977073993,1.079475468290859,2,2
91648,3.0,0.47023308323206475,0.5319865821569374,0.35099894005209786,1.004097062540836,1.0763367892700084,2,2
91776,3.0,0.47663513863081974,0.5500305810119681,0.3670697800307041,1.0047117139286545,1.0969667457614503,0,2
91904,3.0,0.4817768745564431,0.5465707787414728,0.37349488268575204,1.0049571318736141,1.127357920067953,0,2
92032,3.0,0.4917401555594524,0.5476329214262828,0.3709872634989053,1.0049571318736141,1.133481965643436,0,-1
92160,3.0,0.46499171997612015,0.5422375689837141,0.3328642952450138,1.004588910279602,1.1422583351517914,0,-1
92288,3.0,0.446650745927161,0.5236439470009701,0.3464989538679749,1.0039739418975728,1.1165840939364033,0,2
92416,3.0,0.46434777828958795,0.5302894659999402,0.3810755740990629,1.0038507576010838,1.0838781989396555,2,2
92544,3.0,0.46555855735874335,0.5258695305418213,0.36789723852015715,1.0038507576010838,1.0717869954900134,2,-1
92672,3.0,0.44698825477185916,0.5159384744385457,0.36300175088867914,1.0036041977073993,1.090535862827562,2,2
92800,3.0,0.44881342754573506,0.505518578492604,0.34361685407989334,1.0033573821759203,1.0858311641359528,2,2
92928,3.0,0.44872614518841847,0.4987693318496848,0.30933405262886526,1.0034808219392384,1.0834382891586651,2,2
93056,3.0,0.45124625752884245,0.5337075689439906,0.36939562429013495,1.0043431132076361,1.098326565573518,0,2
93184,3.0,0.4492197798996026,0.559531070082435,0.425054224364862,1.0047117139286545,1.0842332815919096,0,2
93312,3.0,0.44359016541127283,0.5621107797372666,0.4349377329332693,1.0047117139286545,1.091962489063429,0,2
93440,3.0,0.45786965227271303,0.5592842673395412,0.4804827501144818,1.0047117139286545,1.0880389824791752,0,-1
93568,3.0,0.473624769766191,0.5638479791526706,0.490309366100041,1.0048344544320031,1.1005590135483343,0,2
93696,3.0,0.45572688677642365,0.5529703104146957,0.441552850497291,1.0048344544320031,1.0948032008501871,0,2
93824,3.0,0.47827100460028155,0.5593780497834553,0.41720672530142017,1.0052022979066102,1.1005854050344157,0,2
93952,3.0,0.4299849132747509,0.5730904914165191,0.3652853692878587,1.0053247866650505,1.154167650056983,0,-1
94080,3.0,0.5426921245051616,0.5622122658012688,0.35250117134257103,1.0049571318736141,1.1308626341847485,0,-1
94208,3.0,0.5424399363684276,0.56299340198261,0.4122133629508219,1.0048344544320031,1.1214666000639282,0,-1
94336,3.0,0.5547864835656914,0.5552704022589758,0.4168723729876461,1.0047117139286545,1.1458198930046883,0,-1
94464,3.0,0.44800890852577524,0.5411376998469886,0.3817905697562019,1.004097062540836,1.0896360338188351,0,2
94592,3.0,0.4372983529375925,0.5618880097578793,0.4020218749567908,1.0047117139286545,1.0954088277985354,0,2
94720,3.0,0.4190960342288224,0.5747105632223172,0.3375783758058458,1.0052022979066102,1.0812659004272407,0,-1
94848,3.0,0.41696577338673196,0.576289554245865,0.2807095490184305,1.0052022979066102,1.0971140811223206,0,-1
94976,3.0,0.4147424108347771,0.5869120684945249,0.2599744772416565,1.0055695760821457,1.1281532829349832,0,-1
95104,3.0,0.4343338640043985,0.5634863237604937,0.2209286518804328,1.0048344544320031,1.0918791704768853,2,-1
95232,3.0,0.4365836125591406,0.5499754847294052,0.27479805102948657,1.0044660434007024,1.0934769714055148,2,2
95360,3.0,0.42902150460089344,0.5456817937956662,0.28173990645338165,1.0043431132076361,1.0909725347095858,2,2
95488,3.0,0.4688490859211331,0.5288152221306641,0.34667353296109377,1.004097062540836,1.094435808951392,0,2
95616,3.0,0.48069715385114703,0.5486649985551267,0.37473265206015066,1.0048344544320031,1.1111270123941008,0,2
95744,3.0,0.4576447291879058,0.549520227486825,0.35226479346117967,1.0049571318736141,1.1060635514551165,0,2
95872,3.0,0.48093530402729434,0.5654860010643225,0.3487632300000656,1.0052022979066102,1.1259164680717542,0,2
96000,3.0,0.4652797014747982,0.5827938873680654,0.3327578925919406,1.0058141152526048,1.097594272011223,0,-1
96128,3.0,0.4586387597111511,0.5509259166246797,0.33373907863997526,1.0048344544320031,1.088235921189127,0,2
96256,3.0,0.4553323348144242,0.530996251909547,0.3268818234029944,1.0043431132076361,1.0887739316303733,2,2
96384,3.0,0.41267718158648836,0.5108030930425146,0.26879565012327106,1.004097062540836,1.114236947800598,2,-1
96512,3.0,0.3986727411149164,0.4963928569002013,0.2680781619197249,1.0034808219392384,1.0881760023927811,2,-1
96640,3.0,0.4501852708812148,0.49787755594662897,0.31443198482800966,1.0033573821759203,1.090959559310584,2,2
96768,3.0,0.46592150684217976,0.5223019036267158,0.3408082867752599,1.0039739418975728,1.1003934110124693,0,2
96896,3.0,0.45046992535515196,0.5223590802300605,0.3496360472494276,1.0039739418975728,1.1021315108100995,0,2
97024,3.0,0.45581719196677717,0.5105373917539526,0.3770740535430893,1.0037275095661569,1.0939738924703328,2,2
97152,3.0,0.42610080673607953,0.5073054387491263,0.35378139206026676,1.0037275095661569,1.102271595825588,2,2
97280,3.0,0.42614992766806675,0.49171897037646234,0.34631262311223715,1.0033573821759203,1.093139989587744,2,2
97408,3.0,0.42735355394202695,0.5193306200172649,0.4200501441358146,1.0039739418975728,1.1193999944922552,0,-1
97536,3.0,0.4743824919316296,0.5459199879407239,0.4199071291622481,1.0047117139286545,1.118115943154842,0,2
97664,3.0,0.4986421971605134,0.5455364381103444,0.4307657190400286,1.0048344544320031,1.1110228946325806,0,2
97792,3.0,0.4835470227030705,0.5690454600945003,0.4507473874868798,1.0053247866650505,1.125678576690711,0,1
97920,3.0,0.4807922135170481,0.5422671733359193,0.37454118450011925,1.0047117139286545,1.0935542314181543,0,2
98048,3.0,0.47126108404783934,0.5306979546048385,0.35171529677548447,1.004588910279602,1.0985700257697661,0,2
98176,3.0,0.4888965628569159,0.5404825461112199,0.3538275284155695,1.0048344544320031,1.1203329766925645,0,2
98304,3.0,0.49551466507226155,0.5212557108019267,0.3234738365498384,1.0043431132076361,1.1395898300492193,0,-1
98432,3.0,0.47539631064035115,0.5407108308295643,0.3546898103614646,1.0044660434007024,1.1158222046979818,0,2
98560,3.0,0.48082614589814276,0.5472439044221492,0.3783279093002164,1.0043431132076361,1.0986969318927564,0,2
98688,3.0,0.4740004908959005,0.5436840729376994,0.33976168879064816,1.0042201196159057,1.0921630135335036,0,2
98816,3.0,0.4810164683816591,0.5273117174678259,0.31501520518609233,1.0039739418975728,1.084830263010395,2,2
98944,3.0,0.4924324793671858,0.5259034781112534,0.28553414160691803,1.004097062540836,1.0992348345697065,0,2
99072,3.0,0.4377622614392408,0.4846208555904557,0.27427785055077747,1.0036041977073993,1.0955123941186167,2,2
99200,3.0,0.45837358620331836,0.49408134141594817,0.29887588343268495,1.0034808219392384,1.0940799975490505,2,2
99328,3.0,0.4797495965474623,0.5081215942681018,0.3243062043147212,1.0037275095661569,1.1005007041656376,2,2
99456,3.0,0.4590908238275568,0.4958461701415392,0.3346072471171334,1.0034808219392384,1.096087018736096,2,2
99584,3.0,0.4410659760305773,0.49321569070866883,0.3268923631765917,1.0033573821759203,1.0845735077720466,2,2
99712,3.0,0.40992570837778175,0.4723587603764874,0.2666637948284548,1.0033573821759203,1.0720242728810583,2,-1
99840,3.0,0.36732878068189834,0.4795866057795396,0.2682639865946794,1.003110310319889,1.0755123611945863,2,-1
99968,3.0,0.43890858690771173,0.49147134772593637,0.26896353191876493,1.0036041977073993,1.070799667387187,2,2
100096,3.0,0.4171988580202649,0.5139155036962567,0.3213656784822433,1.0038507576010838,1.0836758919686775,2,2
100224,3.0,0.440209350952995,0.5429951978437227,0.35352036719021684,1.0044660434007024,1.0956375903200875,0,2
100352,3.0,0.4585416898069591,0.5426061800203056,0.32125317305875056,1.004588910279602,1.1048625433298942,0,2
100480,3.0,0.4645689912357201,0.5445110069009277,0.3000103461847766,1.004588910279602,1.1054174970996362,0,2
100608,3.0,0.5204201446235742,0.559723898639956,0.3367301680128932,1.0048344544320031,1.0922760622243994,0,-1
100736,3.0,0.4919454069654076,0.5500031730175747,0.32452569614255494,1.0047117139286545,1.0918155259083786,0,2
100864,3.0,0.5026117132217887,0.5321493380848762,0.32806475895448045,1.0043431132076361,1.1024925448791882,0,2
100992,3.0,0.4770789022765666,0.5486374362107778,0.34347824096316515,1.0048344544320031,1.1198172433681253,0,2
101120,3.0,0.4666739358081337,0.5466756661220579,0.3317651149592153,1.0049571318736141,1.126511483165593,0,2
101248,3.0,0.43276115136102683,0.5565553697924778,0.37675054088967885,1.0049571318736141,1.106518359445178,0,2
101376,3.0,0.44951238315478825,0.5652366479063281,0.37362365660048896,1.005079746337278,1.1042833288807377,0,2
101504,3.0,0.43710938766532104,0.5396203383765911,0.3476519983989557,1.0043431132076361,1.097877503659772,0,2
101632,3.0,0.4179083074048466,0.5160140913365341,0.35545735430328473,1.0038507576010838,1.08936394198111,2,2
101760,3.0,0.43108101419101114,0.5014320131080592,0.32733687619211316,1.0037275095661569,1.082945946364781,2,2
101888,3.0,0.4451102295851989,0.4945021702720648,0.30352733897430884,1.0037275095661569,1.0863246661451293,2,2
102016,3.0,0.4628668253236897,0.5143911009355094,0.32303058029160964,1.004097062540836,1.099758167457269,2,2
102144,3.0,0.5355205142606629,0.5339230160786652,0.3393746996186669,1.0047117139286545,1.1206644323968973,0,-1
102272,3.0,0.5178959273914937,0.5602569664580765,0.3970027363612453,1.0052022979066102,1.1274256121440387,0,-1
102400,3.0,0.526885474801625,0.5602573043460787,0.41244800160559086,1.0052022979066102,1.1239892197819772,0,-1
102528,3.0,0.4788926675126334,0.5517960358705607,0.3753385527596261,1.0052022979066102,1.1142370578734422,0,2
102656,3.0,0.4612123855235485,0.534877718008546,0.35214375450151814,1.004588910279602,1.1068030473013402,0,2
102784,3.0,0.38018200016622145,0.48610690031947495,0.2391033468283835,1.0037275095661569,1.0680083137685834,2,-1
102912,3.0,0.3924295790596463,0.4874498217676761,0.23824943339859347,1.0037275095661569,1.0755182980846234,2,-1
103040,3.0,0.4456148723852968,0.4818728146439614,0.26884093539592485,1.0033573821759203,1.0747922455293064,2,2
103168,3.0,0.47769883006340275,0.4920181440899165,0.3172713830456826,1.0036041977073993,1.0924513323184737,2,2
103296,3.0,0.45880085253925834,0.5155584175031465,0.36863720653589327,1.0038507576010838,1.1017534932407838,0,2
103424,3.0,0.4223151908467831,0.5105907529440714,0.3623304206634977,1.0037275095661569,1.0974207203658595,2,2
103552,3.0,0.4687234511849108,0.5459199879407239,0.3598668193855952,1.0047117139286545,1.1545132580864503,0,-1
103680,3.0,0.41186488960496437,0.5485617736515913,0.30752466058634437,1.0047117139286545,1.1188296938605384,0,-1
103808,3.0,0.40892060286064363,0.5380677303446859,0.26839171682859936,1.004588910279602,1.1191165713182707,0,-1
103936,3.0,0.40814372466505733,0.5672687012822467,0.2862074657743735,1.0052022979066102,1.1243424446105386,0,-1
104064,3.0,0.5035440255897301,0.5516909081292156,0.3399854394726938,1.0047117139286545,1.1093732044623628,0,2
104192,3.0,0.45477953411492145,0.5661876054076654,0.38713175410556017,1.0052022979066102,1.1174476960077622,0,2
104320,3.0,0.4070293704263378,0.5642829160237594,0.40071551943727296,1.005079746337278,1.1097993308098368,0,2
104448,3.0,0.4230210440822385,0.5545183812758447,0.42529602915001347,1.0047117139286545,1.1070627099499963,0,2
104576,3.0,0.4840949342783648,0.5822326817478953,0.43801578090420484,1.0055695760821457,1.1458266777873198,0,-1
104704,3.0,0.4849824017461945,0.5668192280128161,0.3942342309941554,1.0052022979066102,1.1249751942505826,0,2
104832,3.0,0.4729236108770661,0.569162048895478,0.43802058339268485,1.0052022979066102,1.1170166389337195,0,2
104960,0.0,0.4457252099216198,0.549678162457603,0.39819657777945455,1.0048344544320031,1.1093156220748235,0,1
105088,0.0,0.4487058647897884,0.4968701198505325,0.31326261785597326,1.0034808219392384,1.087428442034936,2,-1
105216,0.0,0.4218882919147077,0.4691103583247398,0.27247390788837567,1.003110310319889,1.1014134698660802,2,-1
105344,0.0,0.40537799764125254,0.4745253205048884,0.26625067715933626,1.0033573821759203,1.0986763688734498,2,3
105472,0.0,0.5035108000379145,0.500091528300708,0.2837239840348302,1.0038507576010838,1.103489002456445,2,-1
105600,0.0,0.49993611147213934,0.528279049556725,0.33491996661261525,1.0043431132076361,1.1276796557374964,0,-1
105728,0.0,0.4829239015837571,0.5406373497118337,0.40704518853062216,1.0044660434007024,1.0965575403770083,0,1
105856,0.0,0.3967033995399054,0.5369814734898424,0.3961250102496605,1.0044660434007024,1.0835906605174872,2,-1
105984,0.0,0.3888529376208932,0.5430949091570393,0.43308131775864983,1.004588910279602,1.1063076130704599,0,-1
106112,0.0,0.35946600346030333,0.5335104989523426,0.4088752239465293,1.0043431132076361,1.0765831196170534,2,-1
106240,0.0,0.4091228482864159,0.5584438037100063,0.4246412682352847,1.005079746337278,1.1071588801634034,0,1
106368,0.0,0.3900545351759312,0.558312051702368,0.4223277209801476,1.0049571318736141,1.1127189579913777,0,-1
106496,0.0,0.4415923562035406,0.5654458869319058,0.46409629245117495,1.005079746337278,1.121549886021548,0,1
106624,0.0,0.432564267362465,0.5693183763955039,0.44847391425058225,1.0052022979066102,1.1322133522160682,0,1
106752,0.0,0.4302083672442559,0.5632421180000093,0.4695399262026125,1.005079746337278,1.1269257290647885,0,1
106880,0.0,0.4074057484587111,0.5755479833595726,0.49520373952096847,1.0053247866650505,1.1211455835870228,0,1
107008,0.0,0.39521744762120015,0.568666692303133,0.5109168396741084,1.005079746337278,1.120615078177412,0,1
107136,0.0,0.3803886434827919,0.5622122658012688,0.4923049269820618,1.0049571318736141,1.121482324074846,0,1
107264,0.0,0.3519344257507454,0.5384757933217911,0.4252107643482148,1.0043431132076361,1.1057869724808163,2,-1
107392,0.0,0.3871981598561444,0.5105417390470535,0.3489924477667161,1.0038507576010838,1.1085241380939352,2,-1
107520,0.0,0.3726594276845066,0.4915046786846297,0.28779943645637557,1.0038507576010838,1.109311981400926,2,-1
107648,0.0,0.3729145432894756,0.4865821282974154,0.2719045545884003,1.0037275095661569,1.0986560123600384,2,3
107776,0.0,0.3966259166856605,0.48715580182917134,0.27743204184530873,1.0037275095661569,1.101900097209322,2,3
107904,0.0,0.3908166014548473,0.49151495839385656,0.2845217440647675,1.0039739418975728,1.1173370365015973,2,-1
108032,0.0,0.3994918893799595,0.5029914272202308,0.2559514863058617,1.0042201196159057,1.0976220829163503,2,-1
108160,0.0,0.4350119309979749,0.49822881561603477,0.25272810584449024,1.0039739418975728,1.0912049972472844,2,-1
108288,0.0,0.4474952973722446,0.5232614981612056,0.3016448795812483,1.0044660434007024,1.122954190314287,0,-1
108416,0.0,0.4531097522554695,0.5286402834425479,0.3139238907061004,1.0042201196159057,1.1026724936177967,2,1
108544,0.0,0.4402235621042581,0.5266951514204813,0.3375341209756107,1.0039739418975728,1.0993723346618551,2,1
108672,0.0,0.44965327425820956,0.5363026536229417,0.34623580210348787,1.0039739418975728,1.091328788044369,2,1
108800,0.0,0.39594170936645506,0.5229338171704164,0.3526126499298535,1.0036041977073993,1.0775980638071958,2,-1
108928,0.0,0.38188057646992984,0.5383507340539685,0.40132534808745957,1.0042201196159057,1.0884186899299673,2,-1
109056,0.0,0.4656852904939255,0.5251827321022202,0.4162410744526561,1.0039739418975728,1.0878883570652844,0,1
109184,0.0,0.5010099912551985,0.5298110724982086,0.3678320589968465,1.004588910279602,1.1005334913515343,0,1
109312,0.0,0.48761900015824317,0.5432504255052203,0.36089095861563253,1.0049571318736141,1.1237500395183488,0,1
109440,0.0,0.4463911139374685,0.5343688676930769,0.3175350356014621,1.0048344544320031,1.107606165678265,0,1
109568,0.0,0.48762277496039863,0.549873095360445,0.3042046308826715,1.0053247866650505,1.1207384269479066,0,1
109696,0.0,0.49390516245256927,0.5433645754333588,0.26141414563117077,1.0054472126958651,1.1171578391126118,0,-1
109824,0.0,0.4499519228048851,0.5469974114134151,0.2366582523984309,1.0055695760821457,1.1001488865944162,0,-1
109952,0.0,0.4581394384872641,0.5583878464797141,0.2613472128756979,1.0056918769068104,1.1013099701918836,0,-1
110080,0.0,0.4818736208239772,0.5684747553109053,0.27328131107206527,1.0056918769068104,1.1062291800147919,0,-1
110208,0.0,0.509504519804667,0.5655574127032168,0.29660188375450525,1.0056918769068104,1.1234250182816183,0,-1
110336,0.0,0.47712099472592273,0.5607343440486967,0.36218225274231236,1.0055695760821457,1.1110813283223584,0,1
110464,0.0,0.4482426562111725,0.5647647744881962,0.35815064780092826,1.0054472126958651,1.1114719281312493,0,1
110592,0.0,0.4121169638028519,0.5579182934322984,0.3840889060901901,1.0052022979066102,1.1014549581550614,0,1
110720,0.0,0.40688268461701865,0.5746716031773252,0.4377222534207841,1.0054472126958651,1.1006035089002504,0,1
110848,0.0,0.4140138550437473,0.5881576996972968,0.47519844612283957,1.0058141152526048,1.109545261049522,0,1
110976,0.0,0.513973295274006,0.5910885469417528,0.47694415503286275,1.0059362912021022,1.1280226035595748,0,1
111104,0.0,0.49995664616517127,0.5940138108223841,0.5017341199756424,1.006058404837703,1.1493963985141467,0,1
111232,0.0,0.5017948039794656,0.5842235851788259,0.4702787702572388,1.0058141152526048,1.1334857365993767,0,1
111360,0.0,0.471808361076188,0.5578713519343796,0.4064275964679716,1.0049571318736141,1.1106570211049178,0,1
111488,0.0,0.4475338845981611,0.5459199879407239,0.3693034681690281,1.0047117139286545,1.0884172523088755,0,1
111616,0.0,0.41847784331520466,0.5116922666368264,0.33725496146434253,1.0038507576010838,1.0895601529401282,2,-1
111744,0.0,0.4239951714977726,0.5136494814302549,0.34928800734375387,1.0039739418975728,1.0931456806818496,2,-1
111872,0.0,0.3923704713934012,0.5238658620729895,0.3552728197508793,1.0043431132076361,1.1003027138585029,2,-1
112000,0.0,0.4271514980991767,0.55825762115982,0.39725679249594625,1.0049571318736141,1.1162959434179887,0,1
112128,0.0,0.4554664070597864,0.5802958617785133,0.4142325227186242,1.0055695760821457,1.1094388257982315,0,1
112256,0.0,0.4580369338802524,0.5850920528078918,0.45829039282442774,1.0055695760821457,1.1117205406247768,0,1
112384,0.0,0.47587911337843264,0.5925852058955708,0.4442158619336496,1.0058141152526048,1.1090964377053918,0,1
112512,0.0,0.48093971473710073,0.5832374748877777,0.4756383049320914,1.0054472126958651,1.131475438705471,0,1
112640,0.0,0.47902865490523894,0.5888603019323987,0.5132307558714142,1.0056918769068104,1.120841348821797,0,1
112768,0.0,0.4769124278083555,0.5903075826814638,0.5207735520464839,1.0056918769068104,1.1336772529091927,0,1
112896,0.0,0.4798982324237061,0.5931032701303822,0.548717258935137,1.0058141152526048,1.1402618944908438,0,1
113024,0.0,0.4663417301888103,0.5932419469053497,0.5046950365091851,1.0059362912021022,1.1334325687626212,0,1
113152,0.0,0.4678069378123633,0.5826680562688406,0.4911634671948339,1.0055695760821457,1.1283636344810217,0,1
113280,0.0,0.45898903535770896,0.5826734387334953,0.40160216604146215,1.0056918769068104,1.1304349619731255,0,1
113408,0.0,0.47094428013828354,0.5849116979978607,0.3567612959961238,1.0056918769068104,1.1245295212685238,0,1
113536,0.0,0.4652488995830112,0.5740982170371706,0.39187871174292427,1.0052022979066102,1.1174845202728376,0,1
113664,0.0,0.466842903923275,0.5767876582594587,0.39665703683774745,1.0053247866650505,1.108952809836949,0,1
113792,0.0,0.46592047880892246,0.5607328976984963,0.3987590315633774,1.0048344544320031,1.1014827464347687,0,1
113920,0.0,0.49020226516117016,0.5540322699896386,0.4046445110778105,1.0047117139286545,1.091803107363096,0,1
114048,0.0,0.5125344533407248,0.584794246262015,0.42409338556156906,1.0056918769068104,1.098127554739947,0,1
114176,0.0,0.48581966512261265,0.5930662245442294,0.4502718209715748,1.0058141152526048,1.1131245016562126,0,1
114304,0.0,0.47795887258949765,0.6097343526053058,0.48797516718445205,1.0064243726825695,1.111127863612468,0,1
114432,0.0,0.49583874181756865,0.6123955243677658,0.45457102064539084,1.0065462378831733,1.1147332285786433,0,1
114560,0.0,0.48730747340604036,0.6034570183688973,0.47555959481641674,1.0061804562416374,1.1210024250877204,0,1
114688,0.0,0.4665698991059363,0.6029179862390518,0.45606072327672276,1.0061804562416374,1.1268430549363628,0,1
114816,0.0,0.49309317356276505,0.6088129103562415,0.47087468712367897,1.0064243726825695,1.1357714614812164,0,1
114944,0.0,0.5035913942149549,0.5973944707654024,0.504683431210347,1.006058404837703,1.1167674669027456,0,1
115072,0.0,0.5186261928671666,0.5936723921940825,0.5331862128721434,1.0059362912021022,1.130219851575913,0,1
115200,0.0,0.48754202077425784,0.6069085898848591,0.5440710571149572,1.0064243726825695,1.1373406533135066,0,1
115328,0.0,0.5481682385555304,0.6092536651889151,0.5179957194625943,1.0064243726825695,1.133331532569646,0,1
115456,0.0,0.5206577736220553,0.5966055039608928,0.5026368472606387,1.006058404837703,1.1303764341384768,0,1
115584,0.0,0.5000834989813883,0.6003526995882004,0.4817981244574223,1.0061804562416374,1.1332309588788279,0,1
115712,0.0,0.5262169745170941,0.5698500756863987,0.47920243533547846,1.0052022979066102,1.1086291723888322,0,1
115840,0.0,0.49514584450910687,0.5609991327801287,0.5287264088075396,1.0047117139286545,1.114718265318968,0,1
115968,0.0,0.41743401407876085,0.5730951713862671,0.5461259081585249,1.005079746337278,1.1057267642669066,0,1
116096,0.0,0.40311300432799774,0.5687334799307112,0.5572249563345826,1.0049571318736141,1.1161733282802657,0,1
116224,0.0,0.41085478508075224,0.5772761824972321,0.5103930978076905,1.0053247866650505,1.1251781048232623,0,1
116352,0.0,0.48075711867568816,0.5867114785301774,0.5218729584673187,1.0056918769068104,1.1211739244792522,0,1
116480,0.0,0.4562679915568554,0.5957460384917237,0.5187684098053631,1.006058404837703,1.1201863531930625,0,1
116608,0.0,0.4425918681185557,0.5973781822369587,0.5218281535775599,1.006058404837703,1.1188274764609751,0,1
116736,0.0,0.4399772163275283,0.5971788210446946,0.5130557311271525,1.006058404837703,1.1409125164950942,0,1
116864,0.0,0.42525975321817694,0.5891197754957994,0.5116365672791364,1.0058141152526048,1.1102651227854228,0,1
116992,0.0,0.4456295894741738,0.5996537977132647,0.5076426849235097,1.0061804562416374,1.1210530051707324,0,1
117120,0.0,0.4394338378374714,0.5977985033856618,0.4963338741443168,1.0061804562416374,1.116569676623839,0,1
117248,0.0,0.4212243667019313,0.5816688395546726,0.46343943224324874,1.0056918769068104,1.1027433427045008,0,1
117376,0.0,0.4024337057836153,0.5824488244794764,0.5107811684546851,1.0056918769068104,1.1080048588529292,0,1
117504,0.0,0.4024588006819363,0.5595271791040127,0.5017655391415882,1.0048344544320031,1.103658315969116,0,1
117632,0.0,0.4359778080174021,0.5534558310580737,0.5079188461638908,1.0047117139286545,1.1004153625642576,0,1
117760,0.0,0.4365472640928779,0.5788713411423575,0.5223976392094716,1.0055695760821457,1.1191592800646661,0,1
117888,0.0,0.43681705484520916,0.5716359573585241,0.43195106470994116,1.0055695760821457,1.1233768513766835,0,1
118016,0.0,0.39792623965089924,0.5787537527148192,0.4034921486101696,1.0059362912021022,1.1358537640212978,0,-1
118144,0.0,0.417761452606966,0.5830246309328723,0.4541122619091009,1.0059362912021022,1.132069749962262,0,1
118272,0.0,0.41163909049971276,0.5749631838728244,0.473380908214662,1.0056918769068104,1.1261861603372414,0,1
118400,0.0,0.41817305309024,0.5611792337494698,0.49106950701608576,1.0052022979066102,1.1222226713417516,0,1
118528,0.0,0.3695661092497494,0.5438113126751171,0.43185841833297717,1.004588910279602,1.110717703636203,0,-1
118656,0.0,0.43679194973767094,0.5559958359187243,0.43700995999679954,1.0049571318736141,1.1334199068489947,0,1
118784,0.0,0.4494144490819294,0.5597899229284905,0.4513572654826409,1.0049571318736141,1.1246322865954796,0,1
118912,0.0,0.474556421370201,0.5697470269489533,0.4891727651369379,1.005079746337278,1.1272053800994768,0,1
119040,0.0,0.4846636459655855,0.5904915948195053,0.5161497247470225,1.0056918769068104,1.1639700537786604,0,1
119168,0.0,0.5360369291452007,0.589373448060572,0.4882600485974087,1.0056918769068104,1.1375392966506277,0,1
119296,0.0,0.543684964457762,0.5863166687931308,0.4626060514950164,1.0055695760821457,1.138786292614551,0,-1
119424,0.0,0.5373547162042427,0.5904127629214166,0.43313065122258493,1.0058141152526048,1.1376843653162954,0,1
119552,0.0,0.49235271694906146,0.5982165452272056,0.4145474959763302,1.0061804562416374,1.1474700539997476,0,1
119680,0.0,0.4941951587932296,0.5981589855449818,0.44877949101710746,1.0061804562416374,1.143594302065226,0,1
119808,0.0,0.47335698988239205,0.603068055987591,0.4230156142798228,1.0063024454959635,1.108284704572542,0,1
119936,0.0,0.4635007327160842,0.5959589081383795,0.4226908343840252,1.006058404837703,1.1145775276637375,0,1
120064,0.0,0.41026059482647115,0.5760355635419891,0.4396586706731326,1.0054472126958651,1.106298984520267,0,1
120192,0.0,0.4244776648357346,0.5775373153180021,0.45583012244873033,1.0054472126958651,1.1109464926816295,0,1
120320,0.0,0.43320780698366695,0.5727130467295408,0.5191205153270313,1.0052022979066102,1.1284364117212637,0,1
120448,0.0,0.4949594951310791,0.5928990515915555,0.555341765735024,1.0058141152526048,1.1244545012314142,0,1
120576,0.0,0.4713739505913055,0.6002854278739249,0.538534546658774,1.006058404837703,1.1311472662424873,0,1
120704,0.0,0.42732513458608357,0.5999912511127693,0.5121106170589148,1.006058404837703,1.1102475118585462,0,1
120832,0.0,0.45454280972001926,0.5997678904423066,0.49236228421832323,1.006058404837703,1.1121896989783657,0,1
120960,0.0,0.46031482584908756,0.6030512515747872,0.48175380894401376,1.0061804562416374,1.10561690336732,0,1
121088,0.0,0.4747033014741573,0.5949622851025609,0.4629230009180657,1.0059362912021022,1.1218536086185997,0,1
121216,0.0,0.3853734568081297,0.5753603659361504,0.44757659345829137,1.0054472126958651,1.123567003047971,0,1
121344,0.0,0.32756275187439254,0.5707130886386244,0.470961520921894,1.0052022979066102,1.1048513090529826,0,-1
121472,0.0,0.3550987774718417,0.5690280083836029,0.4734781823493694,1.005079746337278,1.0972740196845725,0,-1
121600,0.0,0.4015092496403252,0.5691776706946886,0.5035388657387895,1.005079746337278,1.0965282958790017,0,1
121728,0.0,0.43782064904319595,0.5835512980159686,0.5215499573278799,1.0054472126958651,1.1052806867705993,0,1
121856,0.0,0.4460689665876457,0.5896516332904712,0.5220793169272288,1.0056918769068104,1.1117534887321745,0,1
121984,0.0,0.4567924694721281,0.5902294846518693,0.5443660651185454,1.0056918769068104,1.1285737308449555,0,1
122112,0.0,0.5046070905431467,0.5770521627468216,0.47361840209477846,1.0052022979066102,1.1067390082368815,0,1
122240,0.0,0.4998177540914415,0.5877253506958134,0.4241572411203169,1.0056918769068104,1.1112873605964542,0,1
122368,0.0,0.4985374940097162,0.5889225025295524,0.40802382283688426,1.0058141152526048,1.1371653559782382,0,1
122496,0.0,0.48140087703335693,0.5930108796106788,0.33861435290199177,1.0059362912021022,1.1022788222880036,0,1
122624,0.0,0.48922480431578386,0.5976229401991711,0.3613801245341756,1.0061804562416374,1.1136914116139425,0,1
122752,0.0,0.467340949978174,0.5968352857058482,0.3563956092392959,1.0061804562416374,1.1169819861551837,0,1
122880,0.0,0.469599158793628,0.5797438023520901,0.423366820742861,1.0055695760821457,1.1151344056849815,0,1
123008,0.0,0.4759414752681045,0.5839314494608548,0.501645065729581,1.0055695760821457,1.1165181848699994,0,1
123136,0.0,0.46031150334375487,0.5766297791672486,0.4796392386119211,1.0052022979066102,1.1097106934549061,0,1
123264,0.0,0.4847204547603933,0.583312626017167,0.5052287671092606,1.0054472126958651,1.1213514054932936,0,1
123392,0.0,0.4749693958806406,0.594911949944496,0.47867188406784444,1.0059362912021022,1.117532714614746,0,1
123520,0.0,0.5092556731040166,0.5967958031968044,0.4735021750882489,1.0059362912021022,1.1443900829437723,0,1
123648,0.0,0.4982599812641224,0.6156513271447854,0.40959245878607187,1.0066680411793234,1.145718396846764,0,1
123776,0.0,0.45193287756431577,0.609205020261501,0.40446606166023563,1.0064243726825695,1.131986409975086,0,1
123904,0.0,0.4136981228325094,0.5947705022137464,0.3885857043716044,1.0059362912021022,1.1373145763457286,0,-1
124032,0.0,0.4425127707367364,0.5744254004093426,0.33602472403781236,1.0055695760821457,1.0962353181322708,0,1
124160,0.0,0.43706788647317324,0.5475796203889551,0.37682747319991355,1.0049571318736141,1.1059796939316866,0,1
124288,0.0,0.40119678486963317,0.519244110353042,0.326243917071894,1.0042201196159057,1.1047907083278947,2,-1
124416,0.0,0.43522814360576617,0.5397381633167997,0.3607270478913033,1.0048344544320031,1.108860876074243,0,1
124544,0.0,0.43389714747318003,0.5490713755182945,0.3890466971074905,1.0048344544320031,1.0863992652416739,0,1
124672,0.0,0.4585459322131048,0.5810235269770816,0.4151155781969856,1.0055695760821457,1.0920478140238201,0,1
124800,0.0,0.468155536953555,0.5969639929193604,0.4109505853848356,1.006058404837703,1.1101374169585234,0,1
124928,0.0,0.4857982431820205,0.597202619050468,0.4111444465388472,1.006058404837703,1.1187300993669118,0,1
125056,0.0,0.5050958771185384,0.5883787174849782,0.38486229631999175,1.0059362912021022,1.1264221479778214,0,1
125184,0.0,0.5057082116795629,0.5765895021158493,0.3375975571436928,1.0055695760821457,1.0913514737836496,0,-1
125312,0.0,0.4691972805196604,0.5453443492910967,0.28928155404210704,1.0049571318736141,1.1012313817919208,0,1
125440,0.0,0.45987791542814443,0.5270681739843083,0.2579446515239458,1.0044660434007024,1.0824693385423498,2,-1
125568,0.0,0.4722638966697405,0.5086949558793517,0.26342785189587015,1.0039739418975728,1.07751707009813,2,-1
125696,0.0,0.3631727844933676,0.4617817343968898,0.2593853742061812,1.0034808219392384,1.0862126284562272,2,3
125824,0.0,0.4087962713324517,0.47966816180862737,0.23017303123569136,1.0037275095661569,1.0804402750352913,2,3
125952,0.0,0.4044637647177477,0.4802672689226001,0.1982703169740255,1.0037275095661569,1.0734859656743934,2,3
126080,0.0,0.36104098359356235,0.48482383828723064,0.18507327835517362,1.0039739418975728,1.0802842277154971,2,-1
126208,0.0,0.3570713971657168,0.5193259694970166,0.16523294270330047,1.0044660434007024,1.1086743195394846,2,-1
126336,0.0,0.3524379519018808,0.5172340374953643,0.170381365675243,1.004588910279602,1.0703072198597952,2,-1
126464,0.0,0.3650193842918253,0.5063414484633783,0.1775610598536303,1.0042201196159057,1.0823591768356762,2,-1
126592,0.0,0.374263347576175,0.5166780858402574,0.1783093064285199,1.0043431132076361,1.078641571001152,2,-1
126720,0.0,0.3799002357397817,0.49419720337754225,0.200473154842219,1.0039739418975728,1.0719846024657376,2,-1
126848,0.0,0.3774955249679108,0.4791201559433016,0.18806519015834977,1.0037275095661569,1.0851936492749756,2,3
126976,0.0,0.3890821598574004,0.5292112539046989,0.22523925588842864,1.004097062540836,1.0945705226350608,2,-1
127104,0.0,0.41468797441833893,0.5325778550771518,0.2423504358619769,1.004097062540836,1.0925341162083197,2,-1
127232,0.0,0.41769245576766223,0.5206905738946734,0.27472268119403903,1.0037275095661569,1.0821618958454053,2,-1
127360,0.0,0.40818133433477205,0.5294181659351281,0.3046018109382452,1.0037275095661569,1.070171972874264,2,-1
127488,0.0,0.42621973444078676,0.5053623201348539,0.3007094857369567,1.0034808219392384,1.0834852778176531,2,-1
127616,0.0,0.4575096906422773,0.4930453655779023,0.30722584571955314,1.0032338783315098,1.0568991281605495,2,-1
127744,0.0,0.4643959562096589,0.4785949241861619,0.30398678147672464,1.0029866780547583,1.0646471449139494,2,-1
127872,0.0,0.4552179450257738,0.49788274828388424,0.28668872777886173,1.0034808219392384,1.074849671938622,2,-1
128000,0.0,0.4297333078119386,0.5103896731460847,0.2720768773570162,1.0037275095661569,1.1399382700505354,2,-1
128128,0.0,0.43145057818241506,0.5611265802224679,0.30135385643948465,1.0048344544320031,1.0868092577965218,0,1
128256,0.0,0.4645668285035115,0.5932571473813917,0.31890463131619623,1.0058141152526048,1.0847604754525366,0,-1
128384,0.0,0.47997274901556297,0.593474776640786,0.38272858849332275,1.0058141152526048,1.08135865801042,0,-1
128512,0.0,0.48760095236437023,0.5993048548714692,0.45273675351407183,1.006058404837703,1.1227574121777615,0,1
128640,0.0,0.4453501582616222,0.5792866436033464,0.47258678933464854,1.0053247866650505,1.0904965650072727,0,1
128768,0.0,0.43722305667467914,0.5715286218119531,0.4676331461746446,1.005079746337278,1.0984947909327591,0,1
128896,0.0,0.4414753643077606,0.576842923721244,0.4503108268204406,1.0052022979066102,1.1155840073352872,0,1
129024,0.0,0.45373912749426176,0.5736554175089068,0.4425136033691701,1.005079746337278,1.1187020720765075,0,1
129152,0.0,0.4317246859799579,0.578933858479786,0.40664954576755497,1.0053247866650505,1.1189358641546068,0,1
129280,0.0,0.44906289872184757,0.600441999932559,0.40039244451782524,1.006058404837703,1.1390114431246146,0,1
129408,0.0,0.44856647886824674,0.5999480631788924,0.4346597281260389,1.006058404837703,1.1477150196364456,0,-1
129536,0.0,0.47310009701747274,0.5867776400718491,0.41829127795658455,1.0055695760821457,1.1256087161821535,0,1
129664,0.0,0.4528576059897156,0.582110444979535,0.41326772031332626,1.0054472126958651,1.1332490907931814,0,1
129792,0.0,0.453598561977189,0.5520151920742987,0.38205092714004263,1.0043431132076361,1.0912200682878952,0,1
129920,0.0,0.44810768205290863,0.5666205296467144,0.4163983898049944,1.0048344544320031,1.1099388138985495,0,1
130048,0.0,0.40989023435644084,0.5738646565344844,0.3671285426796338,1.005079746337278,1.110153761153725,0,1
130176,0.0,0.4329854143384712,0.5631356578440289,0.3610781800876851,1.0047117139286545,1.1079351106851516,0,1
130304,0.0,0.4263865638272836,0.5540191692741852,0.35854124582854413,1.0044660434007024,1.1045464808489605,0,1
130432,0.0,0.4720863041000624,0.5542556099417041,0.36447943521206905,1.0044660434007024,1.1138227141388206,0,1
130560,0.0,0.4587945388941303,0.5564516236591653,0.45573525434421186,1.004588910279602,1.1001447233126247,0,1
130688,0.0,0.4620612913117394,0.5747668579029909,0.39659111443152206,1.0052022979066102,1.1271334373273758,0,1
130816,0.0,0.4790461734030133,0.6208703542106372,0.3869724881532684,1.0069114623836124,1.1462221535928583,0,-1
130944,0.0,0.4842918781700254,0.6195692848024611,0.39772908071995455,1.0069114623836124,1.1505908041629869,0,-1
131072,0.0,0.5291547687090115,0.624203262927967,0.40704001213045404,1.0070330804540046,1.1565754720254398,0,-1
131200,0.0,0.4785778875713947,0.6225900879226622,0.4387153082063417,1.0070330804540046,1.1377143028828194,0,1
131328,0.0,0.4608266651344596,0.5778507120466981,0.42167246411340253,1.0053247866650505,1.1076732850498319,0,1
131456,0.0,0.46689797618741796,0.5651423375005746,0.4159257732413546,1.0049571318736141,1.111547646704534,0,1
131584,0.0,0.4567192730637774,0.5419923755473066,0.38658173748841085,1.0042201196159057,1.0962195633579568,0,1
131712,0.0,0.42884960340439204,0.5328773506397971,0.43486893583596803,1.004097062540836,1.1018689692382342,0,1
131840,0.0,0.4187287461837289,0.5397680431888046,0.4539062815486475,1.004588910279602,1.120541295310043,0,1
131968,0.0,0.45309383354463484,0.5396370125624748,0.4456638554907631,1.0044660434007024,1.1218712335872942,0,1
132096,0.0,0.4779805364847352,0.5788882285502054,0.49290237948242593,1.0054472126958651,1.1149411683311161,0,1
132224,0.0,0.4726885264675949,0.5687500179859757,0.44408181721956,1.005079746337278,1.1131497529430874,0,1
132352,0.0,0.45477765334550435,0.5709062981079884,0.43953975269290296,1.005079746337278,1.112167593558237,0,1
132480,0.0,0.42974158758823117,0.587163059936876,0.4164903261832035,1.0056918769068104,1.1133770765225817,0,1
132608,0.0,0.41459105102577887,0.5656991456183179,0.39017130112978743,1.0052022979066102,1.0912764052815003,0,-1
132736,0.0,0.4300253430589254,0.5686064794998678,0.40506321345656576,1.0055695760821457,1.111646888489849,0,1
132864,0.0,0.4780560649030001,0.5885039284443437,0.3853613382544377,1.0061804562416374,1.1145583761667437,0,1
132992,0.0,0.4670389642143189,0.5776419149294172,0.36724287212404705,1.0058141152526048,1.1252379237502355,0,1
133120,0.0,0.4648833777098024,0.5896826420550085,0.3880484684075847,1.006058404837703,1.119213891005516,0,1
133248,0.0,0.4601757109117736,0.5782399423843367,0.3404497552730707,1.0056918769068104,1.1063323784435954,0,1
133376,0.0,0.4602979526021109,0.5675707306129959,0.39135226498608566,1.0055695760821457,1.1060403346031675,0,1
133504,0.0,0.46121931781667935,0.5645329265809818,0.38396532506168485,1.0054472126958651,1.1039068573637039,0,1
133632,0.0,0.48971050884090656,0.5455646784002357,0.350260797313594,1.005079746337278,1.1020360352590237,0,1
133760,0.0,0.4887300454558965,0.5284048963286717,0.3231354441322104,1.0047117139286545,1.114481184841823,0,1
133888,0.0,0.45932391254281635,0.5071743182367274,0.2845111271600586,1.004097062540836,1.1168538234315017,2,-1
134016,0.0,0.4098986142418942,0.4845787196287659,0.2771179939720302,1.0037275095661569,1.0949433430022677,2,3
134144,0.0,0.37600753876689297,0.47543432221979026,0.2462355233067354,1.0034808219392384,1.0950069676338738,2,3
134272,0.0,0.34535926500143377,0.4772477836604594,0.22182153963033746,1.0034808219392384,1.0940055450171362,2,-1
134400,0.0,0.3300633484593164,0.45890020420961386,0.1876135744363703,1.0032338783315098,1.0976041443076534,2,-1
134528,0.0,0.3370095434516465,0.46416063699169696,0.1854724969970065,1.0033573821759203,1.0931546204919884,2,-1
134656,0.0,0.3519377158396153,0.46617154277641387,0.1970021372365979,1.0034808219392384,1.098527465176588,2,-1
134784,0.0,0.35500180847961693,0.4664591703940703,0.21752123892558473,1.0036041977073993,1.0927689899687159,2,3
134912,0.0,0.40120037323278473,0.48644863688386286,0.2404566595049083,1.0039739418975728,1.09834263083606,2,3
135040,0.0,0.4094239366739772,0.4941840625743897,0.25585483931967284,1.0042201196159057,1.10408307549979,2,-1
135168,0.0,0.4134427768996613,0.5254827165440649,0.2724502070711459,1.0049571318736141,1.1098900565591827,2,-1
135296,0.0,0.37993169523694525,0.5360414208699361,0.2814905613388907,1.005079746337278,1.1173501061240152,2,-1
135424,0.0,0.3546363272821799,0.5315505308034518,0.26346528302077493,1.0048344544320031,1.1201771943522154,2,-1
135552,0.0,0.36099728459069197,0.5383367031683479,0.26412655198055995,1.005079746337278,1.1183290886082093,2,-1
135680,0.0,0.3465993554392428,0.5308975634364428,0.25206174265477993,1.0049571318736141,1.1115019195154832,2,-1
135808,0.0,0.34170634415280304,0.5292407100042039,0.2670414075329813,1.0049571318736141,1.1251383881625936,2,-1
135936,0.0,0.39897035471725356,0.541385651027966,0.2696058593181402,1.0052022979066102,1.1260351744344397,0,-1
136064,0.0,0.440547856720294,0.5440615826699869,0.29605371194706054,1.005079746337278,1.1258382038255503,0,1
136192,0.0,0.4245860268867348,0.5475796203889551,0.33257514129632576,1.0049571318736141,1.1168166241145976,0,1
136320,0.0,0.4474759184830794,0.5612616169937494,0.32155666377266234,1.0053247866650505,1.1132043810171932,0,1
136448,0.0,0.4206928872042212,0.5500301053009764,0.3479157638488508,1.0047117139286545,1.0913617109592586,0,1
136576,0.0,0.42785714130672076,0.5646857491642078,0.34381720537372473,1.0049571318736141,1.0744792793450721,0,-1
136704,0.0,0.4334733844554136,0.5851303472318926,0.3335092260019363,1.0055695760821457,1.0786394866585771,0,-1
136832,0.0,0.4347902386127405,0.5846382802495234,0.36308503381065554,1.0055695760821457,1.1048289325919398,0,1
136960,0.0,0.4277617150865537,0.6103185309235043,0.3765971241073122,1.0065462378831733,1.1339755579161035,0,-1
137088,4.0,0.4357786161077335,0.6120702020527289,0.38045390224412323,1.0066680411793234,1.1416667992692944,0,-1
137216,4.0,0.48244560975255374,0.5965049358557234,0.48954297582331346,1.0061804562416374,1.1555768642540727,0,-1
137344,4.0,0.4751548420411021,0.597327080889327,0.49009668142854346,1.0061804562416374,1.1476470607312583,0,2
137472,4.0,0.45320934918236416,0.5693230658189558,0.4525707067076151,1.0054472126958651,1.127862153888305,0,2
137600,4.0,0.4303001034814419,0.5535734930459459,0.4110727801558152,1.0049571318736141,1.119413949473454,0,2
137728,4.0,0.3726448641237045,0.5345783912488723,0.34485550389987535,1.0044660434007024,1.1133775395110397,2,-1
137856,4.0,0.3696083509147686,0.5289974387791487,0.32667520795643906,1.0043431132076361,1.1163564846577407,2,-1
137984,4.0,0.42602014844361835,0.5380075614876167,0.35328810518369486,1.004588910279602,1.1100537763729086,0,2
138112,4.0,0.4086309421374258,0.5309430722405525,0.33868649057652006,1.0044660434007024,1.0924091173573092,2,2
138240,4.0,0.39568860057753186,0.5158070181238793,0.35331165494001954,1.004097062540836,1.089658854771015,2,2
138368,4.0,0.3708424315315678,0.4951449127790422,0.3797548762086804,1.0036041977073993,1.0930391466648304,2,2
